TIMESTAMP ECG(microV)
789051600000000000 201
789051600007694208 -165
789051600015388544 -232
789051600023082752 -120
789051600030776960 -120
789051600038471168 -172
789051600046165376 -146
789051600053859584 -134
789051600061553920 -149
789051600069248128 -134
789051600076942336 -120
789051600084636544 -125
789051600092330752 -125
789051600100024960 -116
789051600107719296 -116
789051600115413504 -118
789051600123107712 -111
789051600130801920 -99
789051600138496128 -97
789051600146190336 -94
789051600153884672 -82
789051600161578880 -71
789051600169273088 -63
789051600176967296 -61
789051600184661504 -54
789051600192355712 -40
789051600200050048 -26
789051600207744256 -16
789051600215438464 -9
789051600223132672 -2
789051600230826880 -2
789051600238521088 -4
789051600246215424 0
789051600253909632 -2
789051600261603840 -9
789051600269298048 -11
789051600276992256 -21
789051600284686464 -28
789051600292380672 -35
789051600300075008 -44
789051600307769216 -54
789051600315463424 -71
789051600323157632 -89
789051600330851840 -94
789051600338546048 -87
789051600346240384 -82
789051600353934592 -78
789051600361628800 -73
789051600369323008 -71
789051600377017216 -63
789051600384711424 -56
789051600392405760 -52
789051600400099968 -44
789051600407794176 -42
789051600415488384 -47
789051600423182592 -49
789051600430876800 -40
789051600438571136 -33
789051600446265344 -33
789051600453959552 -35
789051600461653760 -33
789051600469347968 -33
789051600477042176 -33
789051600484736512 -35
789051600492430764 -37
789051600500125056 -30
789051600507819392 -26
789051600515513856 -14
789051600523208192 11
789051600530902528 28
789051600538596864 23
789051600546291328 11
789051600553985664 -4
789051600561680000 -37
789051600569374336 -56
789051600577068800 -47
789051600584763136 -33
789051600592457472 -42
789051600600151808 -49
789051600607846272 -37
789051600615540608 -30
789051600623234944 -33
789051600630929280 -30
789051600638623744 -18
789051600646318080 -18
789051600654012416 -49
789051600661706752 -89
789051600669401216 -40
789051600677095552 163
789051600684789888 461
789051600692484224 672
789051600700178688 589
789051600707873024 229
789051600715567360 -108
789051600723261696 -156
789051600730956160 -37
789051600738650496 -35
789051600746344832 -89
789051600754039168 -61
789051600761733632 -37
789051600769427968 -54
789051600777122304 -54
789051600784816640 -40
789051600792511104 -35
789051600800205440 -28
789051600807899776 -18
789051600815594112 -16
789051600823288576 -14
789051600830982912 -9
789051600838677248 -4
789051600846371584 4
789051600854066048 18
789051600861760384 23
789051600869454720 23
789051600877149056 35
789051600884843520 47
789051600892537856 56
789051600900232192 66
789051600907926528 80
789051600915620992 89
789051600923315328 85
789051600931009664 85
789051600938704000 97
789051600946398464 99
789051600954092800 89
789051600961787136 78
789051600969481472 68
789051600977175936 66
789051600984870272 56
789051600992564608 40
789051601000258944 30
789051601007953408 18
789051601015647744 -2
789051601023342080 -18
789051601031036416 -26
789051601038730880 -28
789051601046425216 -30
789051601054119640 -35
789051601061814528 -37
789051601069509376 -30
789051601077204096 -26
789051601084898944 -28
789051601092593664 -23
789051601100288512 -28
789051601107983232 -49
789051601115678080 -61
789051601123372800 -52
789051601131067648 -47
789051601138762368 -56
789051601146457216 -61
789051601154151936 -56
789051601161846784 -66
789051601169541504 -87
789051601177236352 -85
789051601184931072 -71
789051601192625920 -73
789051601200320640 -82
789051601208015488 -75
789051601215710208 -73
789051601223405056 -78
789051601231099776 -71
789051601238794624 -61
789051601246489344 -49
789051601254184192 -23
789051601261878912 -11
789051601269573760 -21
789051601277268480 -37
789051601284963328 -61
789051601292658176 -75
789051601300352896 -63
789051601308047744 -54
789051601315742464 -59
789051601323437312 -61
789051601331132032 -61
789051601338826880 -63
789051601346521600 -63
789051601354216448 -56
789051601361911168 -49
789051601369606016 -49
789051601377300736 -66
789051601384995584 -108
789051601392690304 -118
789051601400385152 9
789051601408079872 281
789051601415774720 561
789051601423469440 615
789051601431164288 341
789051601438859008 -49
789051601446553856 -222
789051601454248576 -127
789051601461943424 -71
789051601469638144 -130
789051601477332992 -134
789051601485027712 -104
789051601492722560 -118
789051601500417280 -120
789051601508112128 -99
789051601515806976 -99
789051601523501696 -104
789051601531196544 -99
789051601538891264 -94
789051601546586112 -89
789051601554280832 -82
789051601561975680 -80
789051601569670400 -82
789051601577365248 -82
789051601585059968 -73
789051601592754816 -63
789051601600449536 -56
789051601608144384 -52
789051601615839034 -47
789051601623533312 -37
789051601631227648 -26
789051601638922112 -14
789051601646616448 -9
789051601654310784 -7
789051601662005120 -2
789051601669699584 -9
789051601677393920 -23
789051601685088256 -26
789051601692782592 -23
789051601700477056 -28
789051601708171392 -37
789051601715865728 -40
789051601723560064 -44
789051601731254528 -59
789051601738948864 -75
789051601746643200 -82
789051601754337536 -87
789051601762032000 -94
789051601769726336 -101
789051601777420672 -99
789051601785115008 -89
789051601792809472 -85
789051601800503808 -87
789051601808198144 -75
789051601815892480 -66
789051601823586944 -63
789051601831281280 -59
789051601838975616 -59
789051601846669952 -59
789051601854364416 -59
789051601862058752 -54
789051601869753088 -47
789051601877447424 -47
789051601885141888 -54
789051601892836224 -52
789051601900530560 -44
789051601908224896 -42
789051601915919360 -52
789051601923613696 -52
789051601931308032 -42
789051601939002368 -44
789051601946696832 -47
789051601954391168 -42
789051601962085504 -33
789051601969779840 -30
789051601977474304 -35
789051601985168640 -37
789051601992862976 -33
789051602000557312 -26
789051602008251776 -21
789051602015946112 -21
789051602023640448 -14
789051602031334784 2
789051602039029248 11
789051602046723584 11
789051602054417920 11
789051602062112256 -2
789051602069806720 -18
789051602077501056 -26
789051602085195392 -23
789051602092889728 -23
789051602100584192 -26
789051602108278528 -18
789051602115972864 -9
789051602123667200 -11
789051602131361664 -18
789051602139056000 -18
789051602146750336 -14
789051602154444672 -30
789051602162139136 -75
789051602169833472 -73
789051602177527910 92
789051602185222272 400
789051602192916608 655
789051602200611072 646
789051602208305408 336
789051602215999744 -66
789051602223694080 -215
789051602231388544 -94
789051602239082880 -49
789051602246777216 -118
789051602254471552 -101
789051602262166016 -63
789051602269860352 -78
789051602277554688 -80
789051602285249024 -59
789051602292943488 -47
789051602300637824 -49
789051602308332160 -49
789051602316026496 -47
789051602323720960 -33
789051602331415296 -21
789051602339109632 -23
789051602346803968 -23
789051602354498432 -7
789051602362192768 2
789051602369887104 4
789051602377581440 14
789051602385275904 26
789051602392970240 33
789051602400664576 40
789051602408358912 56
789051602416053376 68
789051602423747712 73
789051602431442048 82
789051602439136384 92
789051602446830848 87
789051602454525184 75
789051602462219520 73
789051602469913856 78
789051602477608320 71
789051602485302656 49
789051602492996992 40
789051602500691328 37
789051602508385792 26
789051602516080128 -2
789051602523774464 -16
789051602531468800 -21
789051602539163264 -40
789051602546857600 -49
789051602554551936 -44
789051602562246272 -44
789051602569940736 -49
789051602577635072 -59
789051602585329408 -68
789051602593023744 -61
789051602600718208 -49
789051602608412544 -47
789051602616106880 -42
789051602623801216 -40
789051602631495680 -44
789051602639190016 -47
789051602646884352 -44
789051602654578688 -40
789051602662273152 -42
789051602669967488 -44
789051602677661824 -42
789051602685356160 -42
789051602693050624 -47
789051602700744960 -52
789051602708439296 -47
789051602716133632 -40
789051602723828096 -44
789051602731522432 -47
789051602739216786 -40
789051602746911104 -35
789051602754605440 -37
789051602762299904 -40
789051602769994240 -37
789051602777688576 -23
789051602785382912 -16
789051602793077376 -16
789051602800771712 -14
789051602808466048 -16
789051602816160384 -42
789051602823854848 -63
789051602831549184 -56
789051602839243520 -52
789051602846937856 -56
789051602854632320 -52
789051602862326656 -47
789051602870020992 -44
789051602877715328 -40
789051602885409792 -35
789051602893104128 -33
789051602900798464 -30
789051602908492800 -40
789051602916187264 -68
789051602923881600 -97
789051602931575936 -30
789051602939270272 213
789051602946964736 539
789051602954659072 710
789051602962353408 539
789051602970047744 134
789051602977742208 -163
789051602985436544 -149
789051602993130880 -42
789051603000825216 -71
789051603008519680 -101
789051603016214016 -63
789051603023908352 -54
789051603031602688 -68
789051603039297152 -54
789051603046991488 -44
789051603054685824 -49
789051603062380160 -44
789051603070074624 -30
789051603077768960 -23
789051603085463296 -18
789051603093157632 -16
789051603100852096 -18
789051603108546432 -14
789051603116240768 0
789051603123935104 11
789051603131629568 16
789051603139323904 18
789051603147018240 28
789051603154712576 42
789051603162407040 61
789051603170101376 71
789051603177795712 73
789051603185490048 73
789051603193184512 80
789051603200878848 89
789051603208573184 82
789051603216267520 75
789051603223961984 73
789051603231656320 61
789051603239350656 47
789051603247044992 42
789051603254739456 35
789051603262433792 18
789051603270128128 -7
789051603277822464 -23
789051603285516928 -30
789051603293211264 -44
789051603300905664 -54
789051603308600576 -54
789051603316295424 -54
789051603323990144 -56
789051603331684992 -56
789051603339379712 -52
789051603347074560 -49
789051603354769280 -44
789051603362464128 -42
789051603370158848 -44
789051603377853696 -49
789051603385548416 -59
789051603393243264 -63
789051603400937984 -56
789051603408632832 -56
789051603416327552 -71
789051603424022400 -73
789051603431717120 -66
789051603439411968 -66
789051603447106688 -73
789051603454801536 -73
789051603462496256 -68
789051603470191104 -66
789051603477885824 -68
789051603485580672 -71
789051603493275392 -63
789051603500970240 -63
789051603508664960 -73
789051603516359808 -71
789051603524054528 -61
789051603531749376 -63
789051603539444224 -71
789051603547138944 -68
789051603554833792 -61
789051603562528512 -56
789051603570223360 -42
789051603577918080 -21
789051603585612928 -7
789051603593307648 -16
789051603601002496 -42
789051603608697216 -61
789051603616392064 -61
789051603624086784 -59
789051603631781632 -63
789051603639476352 -63
789051603647171200 -63
789051603654865920 -63
789051603662560768 -61
789051603670255488 -61
789051603677950336 -59
789051603685645056 -61
789051603693339904 -63
789051603701034624 -73
789051603708729472 -113
789051603716424192 -125
789051603724119040 11
789051603731813760 300
789051603739508608 580
789051603747203328 634
789051603754898176 376
789051603762593024 -14
789051603770287744 -217
789051603777982592 -144
789051603785677312 -80
789051603793372160 -132
789051603801066880 -134
789051603808761728 -106
789051603816456448 -113
789051603824151296 -108
789051603831846016 -99
789051603839540864 -101
789051603847235584 -92
789051603854930432 -80
789051603862625058 -78
789051603870319616 -80
789051603878014208 -75
789051603885708800 -63
789051603893403392 -61
789051603901097984 -56
789051603908792448 -42
789051603916487040 -37
789051603924181632 -52
789051603931876224 -59
789051603939570816 -42
789051603947265408 -23
789051603954960000 -14
789051603962654592 -9
789051603970349056 -2
789051603978043648 7
789051603985738240 14
789051603993432832 14
789051604001127424 16
789051604008822016 7
789051604016516608 -28
789051604024211200 -44
789051604031905792 -33
789051604039600256 -35
789051604047294848 -56
789051604054989440 -71
789051604062684032 -80
789051604070378624 -97
789051604078073216 -111
789051604085767808 -118
789051604093462400 -113
789051604101156992 -118
789051604108851456 -127
789051604116546048 -125
789051604124240640 -113
789051604131935232 -111
789051604139629824 -111
789051604147324416 -101
789051604155019008 -97
789051604162713600 -97
789051604170408064 -92
789051604178102656 -85
789051604185797248 -80
789051604193491840 -82
789051604201186432 -87
789051604208881024 -89
789051604216575616 -87
789051604224270208 -87
789051604231964800 -87
789051604239659264 -82
789051604247353856 -82
789051604255048448 -82
789051604262743040 -80
789051604270437632 -80
789051604278132224 -78
789051604285826816 -80
789051604293521408 -78
789051604301216000 -66
789051604308910464 -63
789051604316605056 -73
789051604324299648 -73
789051604331994240 -63
789051604339688832 -61
789051604347383424 -63
789051604355078016 -61
789051604362772608 -59
789051604370467072 -59
789051604378161664 -56
789051604385856256 -54
789051604393550848 -44
789051604401245440 -21
789051604408940032 0
789051604416634624 2
789051604424329194 -9
789051604432023808 -30
789051604439718400 -49
789051604447412992 -49
789051604455107584 -42
789051604462802176 -42
789051604470496640 -49
789051604478191232 -49
789051604485885824 -47
789051604493580416 -54
789051604501275008 -75
789051604508969600 -80
789051604516664192 -63
789051604524358784 -66
789051604532053248 -92
789051604539747840 -120
789051604547442432 -92
789051604555137024 89
789051604562831616 390
789051604570526208 632
789051604578220800 596
789051604585915392 260
789051604593609984 -106
789051604601304448 -210
789051604608999040 -101
789051604616693632 -75
789051604624388224 -130
789051604632082816 -108
789051604639777408 -82
789051604647472000 -97
789051604655166592 -94
789051604662861184 -78
789051604670555648 -78
789051604678250240 -78
789051604685944832 -66
789051604693639424 -56
789051604701334016 -56
789051604709028608 -59
789051604716723200 -44
789051604724417792 -28
789051604732112256 -30
789051604739806848 -28
789051604747501440 -14
789051604755196032 -7
789051604762890624 2
789051604770585216 14
789051604778279808 26
789051604785974400 37
789051604793668992 42
789051604801363456 40
789051604809058048 52
789051604816752640 66
789051604824447232 63
789051604832141824 59
789051604839836416 59
789051604847531008 54
789051604855225600 42
789051604862920192 33
789051604870614656 26
789051604878309248 16
789051604886003840 -4
789051604893698432 -28
789051604901393024 -40
789051604909087616 -49
789051604916782208 -61
789051604924476800 -68
789051604932171264 -68
789051604939865856 -71
789051604947560448 -73
789051604955255040 -68
789051604962949632 -63
789051604970644224 -61
789051604978338816 -61
789051604986033328 -56
789051604993728128 -49
789051605001422976 -47
789051605009117696 -52
789051605016812544 -54
789051605024507264 -52
789051605032202112 -63
789051605039896832 -80
789051605047591680 -78
789051605055286400 -71
789051605062981248 -78
789051605070675968 -82
789051605078370816 -80
789051605086065536 -78
789051605093760384 -75
789051605101455104 -75
789051605109149952 -73
789051605116844672 -68
789051605124539520 -73
789051605132234240 -78
789051605139929088 -71
789051605147623808 -63
789051605155318656 -66
789051605163013376 -66
789051605170708224 -63
789051605178402944 -61
789051605186097792 -63
789051605193792512 -63
789051605201487360 -54
789051605209182080 -44
789051605216876928 -37
789051605224571776 -11
789051605232266496 7
789051605239961344 -7
789051605247656064 -35
789051605255350912 -44
789051605263045632 -52
789051605270740480 -59
789051605278435200 -59
789051605286130048 -52
789051605293824768 -42
789051605301519616 -42
789051605309214336 -54
789051605316909184 -54
789051605324603904 -42
789051605332298752 -37
789051605339993472 -40
789051605347688320 -47
789051605355383040 -78
789051605363077888 -113
789051605370772608 -33
789051605378467456 243
789051605386162176 577
789051605393857024 722
789051605401551744 532
789051605409246592 111
789051605416941312 -203
789051605424636160 -196
789051605432330880 -85
789051605440025728 -108
789051605447720576 -149
789051605455415296 -120
789051605463110144 -101
789051605470804864 -101
789051605478499712 -89
789051605486194432 -87
789051605493889280 -89
789051605501584000 -78
789051605509278848 -63
789051605516973568 -63
789051605524668416 -56
789051605532363136 -42
789051605540057984 -35
789051605547752722 -37
789051605555447040 -26
789051605563141376 -4
789051605570835840 -2
789051605578530176 2
789051605586224512 16
789051605593918848 26
789051605601613312 26
789051605609307648 26
789051605617001984 42
789051605624696320 59
789051605632390784 52
789051605640085120 44
789051605647779456 59
789051605655473792 68
789051605663168256 54
789051605670862592 40
789051605678556928 35
789051605686251264 30
789051605693945728 18
789051605701640064 2
789051605709334400 -7
789051605717028736 -23
789051605724723200 -44
789051605732417536 -63
789051605740111872 -66
789051605747806208 -63
789051605755500672 -68
789051605763195008 -73
789051605770889344 -68
789051605778583680 -59
789051605786278144 -54
789051605793972480 -54
789051605801666816 -44
789051605809361152 -37
789051605817055616 -49
789051605824749952 -52
789051605832444288 -35
789051605840138624 -35
789051605847833088 -47
789051605855527424 -44
789051605863221760 -42
789051605870916096 -47
789051605878610560 -47
789051605886304896 -40
789051605893999232 -40
789051605901693568 -49
789051605909388032 -54
789051605917082368 -47
789051605924776704 -42
789051605932471040 -40
789051605940165504 -40
789051605947859840 -37
789051605955554176 -40
789051605963248512 -44
789051605970942976 -40
789051605978637312 -33
789051605986331648 -30
789051605994025984 -33
789051606001720448 -35
789051606009414784 -33
789051606017109120 -33
789051606024803456 -28
789051606032497920 -23
789051606040192256 -18
789051606047886592 -2
789051606055580928 18
789051606063275392 26
789051606070969728 16
789051606078664064 0
789051606086358400 -18
789051606094052864 -35
789051606101747200 -35
789051606109441598 -28
789051606117135872 -28
789051606124830208 -28
789051606132524672 -30
789051606140219008 -44
789051606147913344 -66
789051606155607680 -63
789051606163302144 -47
789051606170996480 -47
789051606178690816 -78
789051606186385152 -118
789051606194079616 -111
789051606201773952 44
789051606209468288 343
789051606217162624 620
789051606224857088 648
789051606232551424 359
789051606240245760 -40
789051606247940096 -220
789051606255634560 -123
789051606263328896 -56
789051606271023232 -120
789051606278717568 -125
789051606286412032 -80
789051606294106368 -85
789051606301800704 -92
789051606309495040 -73
789051606317189504 -66
789051606324883840 -71
789051606332578176 -59
789051606340272512 -42
789051606347966976 -44
789051606355661312 -47
789051606363355648 -37
789051606371049984 -30
789051606378744448 -21
789051606386438784 -9
789051606394133120 -2
789051606401827456 7
789051606409521920 18
789051606417216256 23
789051606424910592 33
789051606432604928 52
789051606440299392 61
789051606447993728 59
789051606455688064 68
789051606463382400 80
789051606471076864 82
789051606478771200 75
789051606486465536 71
789051606494159872 71
789051606501854336 66
789051606509548672 54
789051606517243008 47
789051606524937344 40
789051606532631808 16
789051606540326144 -7
789051606548020480 -18
789051606555714816 -30
789051606563409280 -52
789051606571103616 -61
789051606578797952 -52
789051606586492288 -49
789051606594186752 -61
789051606601881088 -61
789051606609575424 -44
789051606617269760 -40
789051606624964224 -47
789051606632658560 -44
789051606640352896 -35
789051606648047232 -40
789051606655741696 -47
789051606663436032 -42
789051606671130476 -35
789051606678824832 -35
789051606686519168 -40
789051606694213632 -42
789051606701907968 -37
789051606709602304 -35
789051606717296640 -37
789051606724991104 -40
789051606732685440 -42
789051606740379776 -49
789051606748074112 -66
789051606755768576 -75
789051606763462912 -66
789051606771157248 -56
789051606778851584 -66
789051606786546048 -71
789051606794240384 -59
789051606801934720 -49
789051606809629056 -49
789051606817323520 -52
789051606825017856 -49
789051606832712192 -47
789051606840406528 -47
789051606848100992 -49
789051606855795328 -52
789051606863489664 -61
789051606871184000 -78
789051606878878464 -80
789051606886572800 -63
789051606894267136 -44
789051606901961472 -18
789051606909655936 0
789051606917350272 -11
789051606925044608 -40
789051606932738944 -52
789051606940433408 -56
789051606948127744 -61
789051606955822080 -59
789051606963516416 -56
789051606971210880 -61
789051606978905216 -59
789051606986599552 -56
789051606994293888 -56
789051607001988352 -54
789051607009682688 -52
789051607017377024 -56
789051607025071360 -61
789051607032765824 -82
789051607040460160 -108
789051607048154496 -11
789051607055848832 253
789051607063543296 556
789051607071237632 674
789051607078931968 473
789051607086626304 68
789051607094320768 -201
789051607102015104 -168
789051607109709440 -78
789051607117403776 -113
789051607125098240 -134
789051607132792576 -99
789051607140486912 -99
789051607148181248 -116
789051607155875712 -104
789051607163570048 -92
789051607171264384 -94
789051607178958720 -92
789051607186653184 -82
789051607194347520 -82
789051607202041856 -89
789051607209736192 -78
789051607217430656 -63
789051607225124992 -63
789051607232819352 -59
789051607240514176 -49
789051607248209024 -47
789051607255903744 -44
789051607263598592 -33
789051607271293312 -21
789051607278988160 -11
789051607286682880 -9
789051607294377728 -9
789051607302072448 2
789051607309767296 7
789051607317462016 -7
789051607325156864 -18
789051607332851584 -14
789051607340546432 -21
789051607348241152 -37
789051607355936000 -40
789051607363630720 -40
789051607371325568 -49
789051607379020288 -66
789051607386715136 -78
789051607394409856 -92
789051607402104704 -106
789051607409799424 -111
789051607417494272 -111
789051607425188992 -113
789051607432883840 -118
789051607440578560 -118
789051607448273408 -108
789051607455968128 -89
789051607463662976 -85
789051607471357824 -89
789051607479052544 -85
789051607486747392 -75
789051607494442112 -75
789051607502136960 -73
789051607509831680 -61
789051607517526528 -59
789051607525221248 -66
789051607532916096 -66
789051607540610816 -63
789051607548305664 -61
789051607556000384 -56
789051607563695232 -56
789051607571389952 -56
789051607579084800 -52
789051607586779520 -52
789051607594474368 -54
789051607602169088 -44
789051607609863936 -42
789051607617558656 -54
789051607625253504 -47
789051607632948224 -33
789051607640643072 -33
789051607648337792 -42
789051607656032640 -40
789051607663727360 -30
789051607671422208 -28
789051607679116928 -28
789051607686811776 -26
789051607694506624 -18
789051607702201344 -18
789051607709896192 -30
789051607717590912 -30
789051607725285760 -21
789051607732980480 -14
789051607740675328 -7
789051607748370048 16
789051607756064896 37
789051607763759616 30
789051607771454464 14
789051607779149184 2
789051607786844032 -11
789051607794538746 -21
789051607802233088 -26
789051607809927424 -26
789051607817621888 -23
789051607825316224 -18
789051607833010560 -21
789051607840704896 -23
789051607848399360 -28
789051607856093696 -44
789051607863788032 -54
789051607871482368 -47
789051607879176832 -63
789051607886871168 -113
789051607894565504 -71
789051607902259840 156
789051607909954304 471
789051607917648640 665
789051607925342976 556
789051607933037312 189
789051607940731776 -146
789051607948426112 -191
789051607956120448 -75
789051607963814784 -73
789051607971509248 -120
789051607979203584 -97
789051607986897920 -80
789051607994592256 -89
789051608002286720 -82
789051608009981056 -71
789051608017675392 -63
789051608025369728 -56
789051608033064192 -56
789051608040758528 -56
789051608048452864 -49
789051608056147200 -35
789051608063841664 -28
789051608071536000 -26
789051608079230336 -16
789051608086924672 -9
789051608094619136 -7
789051608102313472 2
789051608110007808 16
789051608117702144 18
789051608125396608 23
789051608133090944 40
789051608140785280 54
789051608148479616 63
789051608156174080 68
789051608163868416 68
789051608171562752 66
789051608179257088 71
789051608186951552 71
789051608194645888 71
789051608202340224 66
789051608210034560 47
789051608217729024 23
789051608225423360 14
789051608233117696 4
789051608240812032 -11
789051608248506496 -35
789051608256200832 -47
789051608263895168 -54
789051608271589504 -66
789051608279283968 -73
789051608286978304 -68
789051608294672640 -66
789051608302366976 -75
789051608310061440 -89
789051608317755776 -80
789051608325450112 -68
789051608333144448 -89
789051608340838912 -108
789051608348533248 -94
789051608356227622 -85
789051608363921920 -92
789051608371616256 -94
789051608379310720 -87
789051608387005056 -80
789051608394699392 -85
789051608402393728 -89
789051608410088192 -82
789051608417782528 -85
789051608425476864 -101
789051608433171200 -111
789051608440865664 -99
789051608448560000 -94
789051608456254336 -101
789051608463948672 -101
789051608471643136 -92
789051608479337472 -87
789051608487031808 -87
789051608494726144 -87
789051608502420608 -80
789051608510114944 -75
789051608517809280 -82
789051608525503616 -80
789051608533198080 -68
789051608540892416 -56
789051608548586752 -40
789051608556281088 -16
789051608563975552 -4
789051608571669888 -11
789051608579364224 -37
789051608587058560 -59
789051608594753024 -61
789051608602447360 -56
789051608610141696 -56
789051608617836032 -54
789051608625530496 -42
789051608633224832 -44
789051608640919168 -54
789051608648613504 -44
789051608656307968 -28
789051608664002304 -30
789051608671696640 -37
789051608679390976 -52
789051608687085440 -92
789051608694779776 -82
789051608702474112 108
789051608710168448 445
789051608717862912 696
789051608725557248 641
789051608733251584 284
789051608740945920 -99
789051608748640384 -198
789051608756334720 -68
789051608764029056 -40
789051608771723392 -101
789051608779417856 -80
789051608787112192 -52
789051608794806528 -63
789051608802500864 -54
789051608810195328 -37
789051608817889664 -44
789051608825584000 -44
789051608833278336 -26
789051608840972800 -16
789051608848667136 -23
789051608856361472 -21
789051608864055808 -9
789051608871750272 -4
789051608879444608 0
789051608887138944 14
789051608894833280 30
789051608902527744 35
789051608910222080 40
789051608917916498 52
789051608925610880 61
789051608933305216 71
789051608940999680 85
789051608948694016 97
789051608956388352 101
789051608964082688 94
789051608971777152 82
789051608979471488 75
789051608987165824 75
789051608994860160 68
789051609002554624 56
789051609010248960 47
789051609017943296 44
789051609025637632 30
789051609033332096 7
789051609041026432 -7
789051609048720768 -23
789051609056415104 -47
789051609064109568 -54
789051609071803904 -49
789051609079498240 -54
789051609087192576 -63
789051609094887040 -59
789051609102581376 -54
789051609110275712 -52
789051609117970048 -52
789051609125664512 -47
789051609133358848 -42
789051609141053184 -44
789051609148747520 -52
789051609156441984 -42
789051609164136320 -35
789051609171830656 -40
789051609179524992 -42
789051609187219456 -40
789051609194913792 -37
789051609202608128 -35
789051609210302464 -42
789051609217996928 -47
789051609225691264 -42
789051609233385600 -42
789051609241079936 -42
789051609248774400 -37
789051609256468736 -30
789051609264163072 -33
789051609271857408 -37
789051609279551872 -37
789051609287246208 -30
789051609294940544 -30
789051609302634880 -35
789051609310329344 -28
789051609318023680 -23
789051609325718016 -33
789051609333412352 -30
789051609341106816 -14
789051609348801152 2
789051609356495488 18
789051609364189824 28
789051609371884288 23
789051609379578624 9
789051609387272960 -14
789051609394967296 -28
789051609402661760 -23
789051609410356096 -18
789051609418050432 -30
789051609425744768 -33
789051609433439232 -26
789051609441133568 -23
789051609448827904 -26
789051609456522240 -21
789051609464216704 -18
789051609471911040 -23
789051609479605376 -30
789051609487300224 -56
789051609494995072 -78
789051609502689792 30
789051609510384640 303
789051609518079360 601
789051609525774208 698
789051609533468928 459
789051609541163776 35
789051609548858496 -210
789051609556553344 -146
789051609564248064 -61
789051609571942912 -108
789051609579637632 -123
789051609587332480 -80
789051609595027200 -85
789051609602722048 -101
789051609610416768 -80
789051609618111616 -61
789051609625806336 -68
789051609633501184 -68
789051609641195904 -56
789051609648890752 -49
789051609656585472 -49
789051609664280320 -42
789051609671975040 -23
789051609679669888 -14
789051609687364608 -16
789051609695059456 -11
789051609702754176 2
789051609710449024 4
789051609718143872 -2
789051609725838592 4
789051609733533440 26
789051609741228160 33
789051609748923008 33
789051609756617728 47
789051609764312576 59
789051609772007296 59
789051609779702144 52
789051609787396864 52
789051609795091712 49
789051609802786432 44
789051609810481280 37
789051609818176000 28
789051609825870848 14
789051609833565568 -4
789051609841260416 -23
789051609848955136 -35
789051609856649984 -44
789051609864344704 -59
789051609872039552 -73
789051609879734272 -80
789051609887429120 -82
789051609895123840 -87
789051609902818688 -82
789051609910513408 -71
789051609918208256 -68
789051609925902976 -75
789051609933597824 -78
789051609941292672 -68
789051609948987392 -63
789051609956682240 -66
789051609964376960 -71
789051609972071808 -73
789051609979766528 -73
789051609987461376 -80
789051609995156096 -80
789051610002850944 -78
789051610010545664 -85
789051610018240512 -94
789051610025935232 -89
789051610033630080 -87
789051610041324770 -92
789051610049019392 -92
789051610056713984 -94
789051610064408704 -97
789051610072103296 -99
789051610079798016 -97
789051610087492608 -94
789051610095187328 -99
789051610102881920 -108
789051610110576512 -120
789051610118271232 -120
789051610125965824 -111
789051610133660544 -120
789051610141355136 -130
789051610149049856 -108
789051610156744448 -82
789051610164439040 -94
789051610172133760 -116
789051610179828352 -123
789051610187523072 -132
789051610195217664 -144
789051610202912384 -144
789051610210606976 -139
789051610218301568 -137
789051610225996288 -132
789051610233690880 -130
789051610241385600 -125
789051610249080192 -123
789051610256774912 -120
789051610264469504 -111
789051610272164096 -99
789051610279858816 -116
789051610287553408 -161
789051610295248128 -111
789051610302942720 118
789051610310637440 435
789051610318332032 639
789051610326026624 535
789051610333721344 161
789051610341415936 -172
789051610349110656 -210
789051610356805248 -89
789051610364499968 -87
789051610372194560 -130
789051610379889152 -104
789051610387583872 -89
789051610395278464 -97
789051610402973184 -87
789051610410667776 -80
789051610418362496 -75
789051610426057088 -61
789051610433751680 -61
789051610441446400 -61
789051610449140992 -44
789051610456835712 -35
789051610464530304 -30
789051610472225024 -21
789051610479919616 -11
789051610487614208 -2
789051610495308928 9
789051610503003520 21
789051610510698240 33
789051610518392832 40
789051610526087552 44
789051610533782144 61
789051610541476736 80
789051610549171456 85
789051610556866048 87
789051610564560768 94
789051610572255360 94
789051610579950080 89
789051610587644672 87
789051610595339264 87
789051610603033992 85
789051610610728064 68
789051610618422144 49
789051610626116224 35
789051610633810304 23
789051610641504384 9
789051610649198464 -9
789051610656892544 -23
789051610664586752 -30
789051610672280832 -47
789051610679974912 -66
789051610687668992 -61
789051610695363072 -49
789051610703057152 -52
789051610710751232 -54
789051610718445312 -47
789051610726139392 -40
789051610733833472 -40
789051610741527552 -40
789051610749221632 -35
789051610756915712 -37
789051610764609792 -40
789051610772304000 -35
789051610779998080 -33
789051610787692160 -28
789051610795386240 -30
789051610803080320 -37
789051610810774400 -35
789051610818468480 -28
789051610826162560 -30
789051610833856640 -33
789051610841550720 -26
789051610849244800 -26
789051610856938880 -33
789051610864632960 -35
789051610872327168 -28
789051610880021248 -26
789051610887715328 -33
789051610895409408 -37
789051610903103488 -23
789051610910797568 -16
789051610918491648 -26
789051610926185728 -26
789051610933879808 -18
789051610941573888 -26
789051610949267968 -26
789051610956962048 -2
789051610964656128 33
789051610972350208 40
789051610980044416 23
789051610987738496 9
789051610995432576 -7
789051611003126656 -26
789051611010820736 -35
789051611018514816 -23
789051611026208896 -16
789051611033902976 -23
789051611041597056 -28
789051611049291136 -18
789051611056985216 -16
789051611064679296 -21
789051611072373376 -23
789051611080067584 -21
789051611087761664 -26
789051611095455744 -61
789051611103149824 -85
789051611110843904 26
789051611118537984 319
789051611126232064 618
789051611133926144 691
789051611141620224 449
789051611149314304 40
789051611157008384 -220
789051611164702522 -170
789051611172397312 -71
789051611180092160 -108
789051611187786880 -132
789051611195481728 -89
789051611203176448 -85
789051611210871296 -106
789051611218566016 -113
789051611226260864 -108
789051611233955584 -99
789051611241650432 -89
789051611249345152 -85
789051611257040000 -78
789051611264734720 -66
789051611272429568 -61
789051611280124288 -61
789051611287819136 -59
789051611295513856 -44
789051611303208704 -33
789051611310903424 -28
789051611318598272 -18
789051611326292992 -4
789051611333987840 0
789051611341682560 7
789051611349377408 23
789051611357072128 35
789051611364766976 37
789051611372461696 40
789051611380156544 49
789051611387851264 49
789051611395546112 37
789051611403240960 26
789051611410935680 26
789051611418630528 26
789051611426325248 9
789051611434020096 -9
789051611441714816 -21
789051611449409664 -40
789051611457104384 -59
789051611464799232 -71
789051611472493952 -92
789051611480188800 -116
789051611487883520 -118
789051611495578368 -113
789051611503273088 -116
789051611510967936 -113
789051611518662656 -108
789051611526357504 -106
789051611534052224 -108
789051611541747072 -106
789051611549441792 -99
789051611557136640 -99
789051611564831360 -106
789051611572526208 -111
789051611580220928 -113
789051611587915776 -116
789051611595610496 -118
789051611603305344 -120
789051611611000064 -123
789051611618694912 -123
789051611626389760 -118
789051611634084480 -123
789051611641779328 -127
789051611649474048 -118
789051611657168896 -113
789051611664863616 -120
789051611672558464 -120
789051611680253184 -113
789051611687948032 -106
789051611695642752 -99
789051611703337600 -92
789051611711032320 -89
789051611718727168 -85
789051611726421916 -87
789051611734116224 -75
789051611741810560 -37
789051611749505024 -11
789051611757199360 -18
789051611764893696 -35
789051611772588032 -47
789051611780282496 -63
789051611787976832 -80
789051611795671168 -82
789051611803365504 -71
789051611811059968 -66
789051611818754304 -73
789051611826448640 -71
789051611834142976 -56
789051611841837440 -54
789051611849531776 -56
789051611857226112 -49
789051611864920448 -42
789051611872614912 -63
789051611880309248 -111
789051611888003584 -85
789051611895697920 132
789051611903392384 471
789051611911086720 691
789051611918781056 603
789051611926475392 234
789051611934169856 -130
789051611941864192 -196
789051611949558528 -61
789051611957252864 -42
789051611964947328 -99
789051611972641664 -78
789051611980336000 -47
789051611988030336 -56
789051611995724800 -59
789051612003419136 -52
789051612011113472 -42
789051612018807808 -30
789051612026502272 -28
789051612034196608 -11
789051612041890944 11
789051612049585280 -4
789051612057279744 -37
789051612064974080 -18
789051612072668416 18
789051612080362752 16
789051612088057216 4
789051612095751552 9
789051612103445888 26
789051612111140224 44
789051612118834688 56
789051612126529024 71
789051612134223360 87
789051612141917696 89
789051612149612160 89
789051612157306496 99
789051612165000832 106
789051612172695168 104
789051612180389632 92
789051612188083968 78
789051612195778304 75
789051612203472640 68
789051612211167104 52
789051612218861440 40
789051612226555776 26
789051612234250112 0
789051612241944576 -16
789051612249638912 -26
789051612257333248 -33
789051612265027584 -35
789051612272722048 -35
789051612280416384 -37
789051612288110792 -40
789051612295805184 -35
789051612303499520 -33
789051612311193984 -28
789051612318888320 -30
789051612326582656 -44
789051612334276992 -47
789051612341971456 -30
789051612349665792 -33
789051612357360128 -56
789051612365054464 -56
789051612372748928 -47
789051612380443264 -54
789051612388137600 -61
789051612395831936 -49
789051612403526400 -35
789051612411220736 -44
789051612418915072 -56
789051612426609408 -49
789051612434303872 -40
789051612441998208 -44
789051612449692544 -44
789051612457386880 -42
789051612465081344 -37
789051612472775680 -40
789051612480470016 -44
789051612488164352 -42
789051612495858816 -33
789051612503553152 -35
789051612511247488 -47
789051612518941824 -40
789051612526636288 -26
789051612534330624 -28
789051612542024960 -14
789051612549719296 21
789051612557413760 28
789051612565108096 -14
789051612572802432 -47
789051612580496768 -44
789051612588191232 -52
789051612595885568 -78
789051612603579904 -85
789051612611274240 -73
789051612618968704 -71
789051612626663040 -78
789051612634357376 -73
789051612642051712 -63
789051612649746176 -61
789051612657440512 -63
789051612665134848 -59
789051612672829184 -61
789051612680523648 -97
789051612688217984 -118
789051612695912320 7
789051612703606656 300
789051612711301120 601
789051612718995456 686
789051612726689792 445
789051612734384128 30
789051612742078592 -210
789051612749772928 -153
789051612757467264 -66
789051612765161600 -101
789051612772856064 -113
789051612780550400 -82
789051612788244736 -82
789051612795939072 -80
789051612803633536 -68
789051612811327872 -68
789051612819022208 -68
789051612826716544 -56
789051612834411008 -52
789051612842105344 -52
789051612849799668 -35
789051612857494016 -21
789051612865188352 -23
789051612872882816 -26
789051612880577152 -16
789051612888271488 -4
789051612895965824 -4
789051612903660288 -11
789051612911354624 2
789051612919048960 21
789051612926743296 21
789051612934437760 30
789051612942132096 49
789051612949826432 59
789051612957520768 59
789051612965215232 61
789051612972909568 66
789051612980603904 63
789051612988298240 47
789051612995992704 42
789051613003687040 47
789051613011381376 35
789051613019075712 9
789051613026770176 0
789051613034464512 -2
789051613042158848 -16
789051613049853184 -40
789051613057547648 -61
789051613065241984 -66
789051613072936320 -56
789051613080630656 -61
789051613088325120 -78
789051613096019456 -73
789051613103713792 -61
789051613111408128 -63
789051613119102592 -61
789051613126796928 -47
789051613134491264 -44
789051613142185600 -49
789051613149880064 -44
789051613157574400 -40
789051613165268736 -44
789051613172963072 -49
789051613180657536 -47
789051613188351872 -40
789051613196046208 -42
789051613203740544 -49
789051613211435008 -47
789051613219129344 -44
789051613226823680 -52
789051613234518016 -54
789051613242212480 -44
789051613249906816 -47
789051613257601152 -52
789051613265295488 -44
789051613272989952 -40
789051613280684288 -40
789051613288378624 -37
789051613296072960 -42
789051613303767424 -47
789051613311461760 -42
789051613319156096 -33
789051613326850432 -33
789051613334544896 -37
789051613342239232 -42
789051613349933568 -44
789051613357627904 -37
789051613365322368 -30
789051613373016704 -23
789051613380711040 0
789051613388405376 21
789051613396099840 18
789051613403794176 0
789051613411488546 -14
789051613419182848 -30
789051613426877184 -40
789051613434571648 -40
789051613442265984 -42
789051613449960320 -37
789051613457654656 -33
789051613465349120 -35
789051613473043456 -37
789051613480737792 -40
789051613488432128 -37
789051613496126592 -40
789051613503820928 -54
789051613511515264 -78
789051613519209600 -113
789051613526904064 -80
789051613534598400 134
789051613542292736 464
789051613549987072 686
789051613557681536 596
789051613565375872 224
789051613573070208 -134
789051613580764544 -201
789051613588459008 -82
789051613596153344 -73
789051613603847680 -127
789051613611542016 -108
789051613619236480 -89
789051613626930816 -97
789051613634625152 -85
789051613642319488 -73
789051613650013952 -71
789051613657708288 -63
789051613665402624 -59
789051613673096960 -61
789051613680791424 -56
789051613688485760 -47
789051613696180096 -33
789051613703874432 -23
789051613711568896 -26
789051613719263232 -28
789051613726957568 -11
789051613734651904 2
789051613742346368 4
789051613750040704 18
789051613757735040 33
789051613765429376 37
789051613773123840 40
789051613780818176 59
789051613788512512 73
789051613796206848 68
789051613803901312 63
789051613811595648 71
789051613819289984 78
789051613826984320 63
789051613834678784 47
789051613842373120 42
789051613850067456 28
789051613857761792 4
789051613865456256 -7
789051613873150592 -18
789051613880844928 -35
789051613888539264 -52
789051613896233728 -63
789051613903928064 -63
789051613911622400 -61
789051613919316736 -71
789051613927011200 -71
789051613934705536 -61
789051613942399872 -63
789051613950094208 -68
789051613957788672 -54
789051613965483008 -47
789051613973177422 -59
789051613980872064 -59
789051613988566656 -54
789051613996261248 -56
789051614003955840 -66
789051614011650432 -73
789051614019344896 -71
789051614027039488 -78
789051614034734080 -99
789051614042428672 -116
789051614050123264 -106
789051614057817856 -92
789051614065512448 -92
789051614073207040 -101
789051614080901504 -101
789051614088596096 -92
789051614096290688 -85
789051614103985280 -82
789051614111679872 -78
789051614119374464 -78
789051614127069056 -82
789051614134763648 -82
789051614142458240 -71
789051614150152704 -63
789051614157847296 -73
789051614165541888 -75
789051614173236480 -59
789051614180931072 -59
789051614188625664 -71
789051614196320256 -66
789051614204014848 -54
789051614211709440 -54
789051614219403904 -59
789051614227098496 -40
789051614234793088 0
789051614242487680 14
789051614250182272 -2
789051614257876864 -14
789051614265571456 -21
789051614273266048 -44
789051614280960512 -56
789051614288655104 -44
789051614296349696 -35
789051614304044288 -42
789051614311738880 -47
789051614319433472 -42
789051614327128064 -37
789051614334822656 -30
789051614342517248 -28
789051614350211712 -35
789051614357906304 -44
789051614365600896 -61
789051614373295488 -92
789051614380990080 -49
789051614388684672 170
789051614396379264 485
789051614404073856 679
789051614411768448 584
789051614419462912 220
789051614427157504 -127
789051614434852096 -177
789051614442546688 -54
789051614450241280 -59
789051614457935872 -125
789051614465630464 -92
789051614473325056 -59
789051614481019520 -73
789051614488714112 -78
789051614496408704 -68
789051614504103296 -63
789051614511797888 -61
789051614519492480 -56
789051614527187072 -47
789051614534881558 -42
789051614542575872 -42
789051614550270208 -33
789051614557964416 -21
789051614565658752 -16
789051614573353088 -11
789051614581047424 -7
789051614588741632 0
789051614596435968 9
789051614604130304 4
789051614611824512 2
789051614619518848 16
789051614627213184 30
789051614634907392 30
789051614642601728 35
789051614650296064 52
789051614657990400 63
789051614665684608 59
789051614673378944 40
789051614681073280 28
789051614688767488 26
789051614696461824 18
789051614704156160 14
789051614711850496 9
789051614719544704 -9
789051614727239040 -40
789051614734933376 -59
789051614742627584 -66
789051614750321920 -73
789051614758016256 -80
789051614765710592 -82
789051614773404800 -82
789051614781099136 -75
789051614788793472 -78
789051614796487680 -82
789051614804182016 -71
789051614811876352 -59
789051614819570560 -68
789051614827264896 -73
789051614834959232 -59
789051614842653568 -56
789051614850347776 -63
789051614858042112 -56
789051614865736448 -54
789051614873430656 -66
789051614881124992 -63
789051614888819328 -56
789051614896513664 -63
789051614904207872 -71
789051614911902208 -71
789051614919596544 -68
789051614927290752 -63
789051614934985088 -61
789051614942679424 -59
789051614950373632 -61
789051614958067968 -59
789051614965762304 -56
789051614973456640 -59
789051614981150848 -56
789051614988845184 -52
789051614996539520 -52
789051615004233728 -61
789051615011928064 -61
789051615019622400 -49
789051615027316736 -52
789051615035010944 -54
789051615042705280 -44
789051615050399616 -44
789051615058093824 -52
789051615065788160 -30
789051615073482496 4
789051615081176704 11
789051615088871040 -11
789051615096565348 -33
789051615104259968 -44
789051615111954560 -44
789051615119649280 -52
789051615127343872 -68
789051615135038592 -68
789051615142733184 -68
789051615150427904 -82
789051615158122496 -82
789051615165817088 -66
789051615173511808 -68
789051615181206400 -80
789051615188901120 -75
789051615196595712 -80
789051615204290432 -125
789051615211985024 -134
789051615219679616 37
789051615227374336 371
789051615235068928 644
789051615242763648 641
789051615250458240 336
789051615258152960 -80
789051615265847552 -255
789051615273542144 -142
789051615281236864 -68
789051615288931456 -120
789051615296626176 -132
789051615304320768 -108
789051615312015488 -106
789051615319710080 -104
789051615327404672 -97
789051615335099392 -92
789051615342793984 -82
789051615350488704 -71
789051615358183296 -63
789051615365878016 -61
789051615373572608 -61
789051615381267200 -52
789051615388961920 -44
789051615396656512 -37
789051615404351232 -26
789051615412045824 -21
789051615419740544 -26
789051615427435136 -18
789051615435129728 2
789051615442824448 9
789051615450519040 4
789051615458213760 14
789051615465908352 33
789051615473603072 37
789051615481297664 35
789051615488992256 40
789051615496686976 44
789051615504381568 35
789051615512076288 23
789051615519770880 23
789051615527465600 26
789051615535160192 16
789051615542854784 0
789051615550549504 -16
789051615558244096 -37
789051615565938816 -63
789051615573633408 -75
789051615581328128 -82
789051615589022720 -94
789051615596717312 -104
789051615604412032 -99
789051615612106624 -89
789051615619801344 -87
789051615627495936 -85
789051615635190656 -75
789051615642885248 -71
789051615650579840 -75
789051615658274568 -73
789051615665968896 -59
789051615673663232 -59
789051615681357696 -73
789051615689052032 -75
789051615696746368 -71
789051615704440704 -71
789051615712135168 -85
789051615719829504 -101
789051615727523840 -94
789051615735218176 -85
789051615742912640 -94
789051615750606976 -101
789051615758301312 -92
789051615765995648 -85
789051615773690112 -82
789051615781384448 -80
789051615789078784 -75
789051615796773120 -73
789051615804467584 -75
789051615812161920 -80
789051615819856256 -73
789051615827550592 -75
789051615835245056 -78
789051615842939392 -68
789051615850633728 -59
789051615858328064 -56
789051615866022528 -59
789051615873716864 -61
789051615881411200 -59
789051615889105536 -49
789051615896800000 -30
789051615904494336 -7
789051615912188672 7
789051615919883008 0
789051615927577472 -23
789051615935271808 -42
789051615942966144 -49
789051615950660480 -49
789051615958354944 -54
789051615966049280 -59
789051615973743616 -54
789051615981437952 -49
789051615989132416 -47
789051615996826752 -44
789051616004521088 -40
789051616012215424 -40
789051616019909888 -44
789051616027604224 -47
789051616035298560 -75
789051616042992896 -97
789051616050687360 21
789051616058381696 307
789051616066076032 592
789051616073770368 679
789051616081464832 466
789051616089159168 61
789051616096853504 -194
789051616104547840 -134
789051616112242304 -47
789051616119936640 -97
789051616127630976 -113
789051616135325312 -78
789051616143019776 -82
789051616150714112 -87
789051616158408448 -71
789051616166102784 -66
789051616173797248 -68
789051616181491584 -52
789051616189185920 -35
789051616196880256 -42
789051616204574720 -54
789051616212269056 -40
789051616219963444 -26
789051616227657728 -21
789051616235352064 -14
789051616243046528 -2
789051616250740864 -2
789051616258435200 -14
789051616266129536 -7
789051616273824000 14
789051616281518336 23
789051616289212672 23
789051616296907008 33
789051616304601472 44
789051616312295808 54
789051616319990144 54
789051616327684480 54
789051616335378944 52
789051616343073280 49
789051616350767616 40
789051616358461952 40
789051616366156416 37
789051616373850752 23
789051616381545088 0
789051616389239424 -21
789051616396933888 -37
789051616404628224 -47
789051616412322560 -56
789051616420016896 -63
789051616427711360 -68
789051616435405696 -85
789051616443100032 -85
789051616450794368 -68
789051616458488832 -63
789051616466183168 -61
789051616473877504 -54
789051616481571840 -54
789051616489266304 -61
789051616496960640 -59
789051616504654976 -49
789051616512349312 -37
789051616520043776 -42
789051616527738112 -56
789051616535432448 -54
789051616543126784 -42
789051616550821248 -44
789051616558515584 -56
789051616566209920 -61
789051616573904256 -56
789051616581598720 -52
789051616589293056 -52
789051616596987392 -49
789051616604681728 -42
789051616612376192 -35
789051616620070528 -42
789051616627764864 -59
789051616635459200 -56
789051616643153664 -44
789051616650848000 -40
789051616658542336 -40
789051616666236672 -40
789051616673931136 -42
789051616681625472 -40
789051616689319808 -33
789051616697014144 -28
789051616704708608 -33
789051616712402944 -37
789051616720097280 -11
789051616727791616 28
789051616735486080 26
789051616743180416 2
789051616750874752 -4
789051616758569088 -18
789051616766263552 -40
789051616773957888 -37
789051616781652322 -28
789051616789347200 -26
789051616797042048 -30
789051616804736768 -40
789051616812431616 -40
789051616820126336 -30
789051616827821184 -23
789051616835515904 -18
789051616843210752 -18
789051616850905472 -56
789051616858600320 -130
789051616866295040 -146
789051616873989888 9
789051616881684608 288
789051616889379456 547
789051616897074176 603
789051616904769024 352
789051616912463744 -42
789051616920158592 -229
789051616927853312 -130
789051616935548160 -61
789051616943242880 -130
789051616950937728 -142
789051616958632448 -97
789051616966327296 -97
789051616974022016 -104
789051616981716864 -87
789051616989411584 -80
789051616997106432 -82
789051617004801152 -75
789051617012496000 -63
789051617020190848 -61
789051617027885568 -59
789051617035580416 -54
789051617043275136 -42
789051617050969984 -35
789051617058664704 -28
789051617066359552 -21
789051617074054272 -16
789051617081749120 -9
789051617089443840 0
789051617097138688 2
789051617104833408 11
789051617112528256 33
789051617120222976 44
789051617127917824 35
789051617135612544 33
789051617143307392 44
789051617151002112 42
789051617158696960 33
789051617166391680 28
789051617174086528 26
789051617181781248 11
789051617189476096 0
789051617197170816 -9
789051617204865664 -23
789051617212560384 -52
789051617220255232 -73
789051617227949952 -82
789051617235644800 -89
789051617243339648 -97
789051617251034368 -106
789051617258729216 -120
789051617266423936 -127
789051617274118784 -118
789051617281813504 -116
789051617289508352 -116
789051617297203072 -108
789051617304897920 -111
789051617312592640 -120
789051617320287488 -118
789051617327982208 -108
789051617335677056 -111
789051617343371716 -116
789051617351066112 -111
789051617358760448 -108
789051617366454912 -113
789051617374149248 -108
789051617381843584 -99
789051617389537920 -101
789051617397232384 -106
789051617404926720 -106
789051617412621056 -99
789051617420315392 -89
789051617428009856 -101
789051617435704192 -120
789051617443398528 -111
789051617451092864 -97
789051617458787328 -101
789051617466481664 -99
789051617474176000 -87
789051617481870336 -82
789051617489564800 -80
789051617497259136 -78
789051617504953472 -78
789051617512647808 -71
789051617520342272 -59
789051617528036608 -52
789051617535730944 -30
789051617543425280 -4
789051617551119744 0
789051617558814080 -7
789051617566508416 -16
789051617574202752 -33
789051617581897216 -52
789051617589591552 -52
789051617597285888 -42
789051617604980224 -40
789051617612674688 -40
789051617620369024 -33
789051617628063360 -33
789051617635757696 -33
789051617643452160 -33
789051617651146496 -28
789051617658840832 -18
789051617666535168 -26
789051617674229632 -61
789051617681923968 -85
789051617689618304 14
789051617697312640 286
789051617705007104 584
789051617712701440 684
789051617720395776 464
789051617728090112 52
789051617735784576 -198
789051617743478912 -123
789051617751173248 -16
789051617758867584 -66
789051617766562048 -89
789051617774256384 -54
789051617781950720 -52
789051617789645056 -63
789051617797339520 -49
789051617805033856 -33
789051617812728192 -33
789051617820422528 -40
789051617828116992 -33
789051617835811328 -18
789051617843505664 -21
789051617851200000 -23
789051617858894464 -9
789051617866588800 0
789051617874283136 -7
789051617881977472 0
789051617889671936 23
789051617897366272 35
789051617905060592 35
789051617912755456 40
789051617920450304 52
789051617928145024 63
789051617935839872 75
789051617943534592 85
789051617951229440 87
789051617958924160 80
789051617966619008 71
789051617974313728 63
789051617982008576 63
789051617989703296 61
789051617997398144 40
789051618005092864 23
789051618012787712 18
789051618020482432 11
789051618028177280 2
789051618035872000 -21
789051618043566848 -47
789051618051261568 -59
789051618058956416 -61
789051618066651136 -56
789051618074345984 -56
789051618082040704 -66
789051618089735552 -68
789051618097430272 -61
789051618105125120 -54
789051618112819840 -52
789051618120514688 -47
789051618128209408 -47
789051618135904256 -42
789051618143599104 -42
789051618151293824 -49
789051618158988672 -47
789051618166683392 -35
789051618174378240 -35
789051618182072960 -47
789051618189767808 -47
789051618197462528 -37
789051618205157376 -40
789051618212852096 -47
789051618220546944 -40
789051618228241664 -30
789051618235936512 -40
789051618243631232 -44
789051618251326080 -33
789051618259020800 -26
789051618266715648 -35
789051618274410368 -44
789051618282105216 -40
789051618289799936 -37
789051618297494784 -54
789051618305189504 -63
789051618312884352 -28
789051618320579072 7
789051618328273920 -2
789051618335968640 -14
789051618343663488 -14
789051618351358208 -26
789051618359053056 -44
789051618366747904 -52
789051618374442624 -49
789051618382137472 -49
789051618389832192 -44
789051618397527040 -42
789051618405221760 -42
789051618412916608 -40
789051618420611328 -42
789051618428306176 -40
789051618436000896 -30
789051618443695744 -30
789051618451390464 -59
789051618459085312 -101
789051618466779986 -52
789051618474474368 179
789051618482168704 504
789051618489863168 691
789051618497557504 547
789051618505251840 132
789051618512946176 -198
789051618520640640 -194
789051618528334976 -61
789051618536029312 -87
789051618543723648 -151
789051618551418112 -118
789051618559112448 -106
789051618566806784 -125
789051618574501120 -106
789051618582195584 -87
789051618589889920 -97
789051618597584256 -104
789051618605278592 -94
789051618612973056 -87
789051618620667392 -87
789051618628361728 -82
789051618636056064 -68
789051618643750528 -61
789051618651444864 -61
789051618659139200 -56
789051618666833536 -37
789051618674528000 -30
789051618682222336 -33
789051618689916672 -23
789051618697611008 -14
789051618705305472 -7
789051618712999808 0
789051618720694144 9
789051618728388480 18
789051618736082944 21
789051618743777280 9
789051618751471616 0
789051618759165952 4
789051618766860416 4
789051618774554752 -7
789051618782249088 -16
789051618789943424 -26
789051618797637888 -35
789051618805332224 -49
789051618813026560 -71
789051618820720896 -87
789051618828415360 -97
789051618836109696 -106
789051618843804032 -111
789051618851498368 -101
789051618859192832 -92
789051618866887168 -89
789051618874581504 -87
789051618882275840 -80
789051618889970304 -75
789051618897664640 -73
789051618905358976 -59
789051618913053312 -52
789051618920747776 -68
789051618928442112 -73
789051618936136448 -54
789051618943830784 -42
789051618951525248 -52
789051618959219584 -59
789051618966913920 -49
789051618974608256 -42
789051618982302720 -40
789051618989997056 -42
789051618997691392 -44
789051619005385728 -40
789051619013080192 -42
789051619020774528 -44
789051619028468862 -35
789051619036163712 -30
789051619043858560 -33
789051619051553280 -35
789051619059248128 -30
789051619066942848 -30
789051619074637696 -37
789051619082332416 -37
789051619090027264 -9
789051619097721984 14
789051619105416832 7
789051619113111552 -11
789051619120806400 -23
789051619128501120 -33
789051619136195968 -47
789051619143890688 -42
789051619151585536 -35
789051619159280256 -37
789051619166975104 -40
789051619174669824 -37
789051619182364672 -30
789051619190059392 -23
789051619197754240 -21
789051619205448960 -23
789051619213143808 -23
789051619220838528 -30
789051619228533376 -63
789051619236228096 -82
789051619243922944 30
789051619251617664 300
789051619259312512 594
789051619267007360 703
789051619274702080 471
789051619282396928 59
789051619290091648 -172
789051619297786496 -104
789051619305481216 -18
789051619313176064 -63
789051619320870784 -78
789051619328565632 -42
789051619336260352 -44
789051619343955200 -63
789051619351649920 -54
789051619359344768 -35
789051619367039488 -26
789051619374734336 -23
789051619382429056 -26
789051619390123904 -28
789051619397818624 -14
789051619405513472 -2
789051619413208192 2
789051619420903040 14
789051619428597760 16
789051619436292608 11
789051619443987328 23
789051619451682176 42
789051619459376896 49
789051619467071744 52
789051619474766464 61
789051619482461312 78
789051619490156160 89
789051619497850880 92
789051619505545728 99
789051619513240448 108
789051619520935296 108
789051619528630016 87
789051619536324864 78
789051619544019584 85
789051619551714432 85
789051619559409152 66
789051619567104000 42
789051619574798720 26
789051619582493568 14
789051619590188256 -4
789051619597882624 -18
789051619605576960 -26
789051619613271424 -37
789051619620965760 -52
789051619628660096 -52
789051619636354432 -37
789051619644048896 -47
789051619651743232 -71
789051619659437568 -66
789051619667131904 -54
789051619674826368 -56
789051619682520704 -52
789051619690215040 -42
789051619697909376 -44
789051619705603840 -68
789051619713298176 -92
789051619720992512 -80
789051619728686848 -68
789051619736381312 -80
789051619744075648 -85
789051619751769984 -78
789051619759464320 -78
789051619767158784 -80
789051619774853120 -71
789051619782547456 -63
789051619790241792 -63
789051619797936256 -66
789051619805630592 -66
789051619813324928 -63
789051619821019264 -59
789051619828713728 -61
789051619836408064 -54
789051619844102400 -47
789051619851796736 -54
789051619859491200 -52
789051619867185536 -18
789051619874879872 7
789051619882574208 7
789051619890268672 -9
789051619897963008 -35
789051619905657344 -54
789051619913351680 -56
789051619921046144 -47
789051619928740480 -42
789051619936434816 -42
789051619944129152 -49
789051619951823616 -44
789051619959517952 -40
789051619967212288 -40
789051619974906624 -44
789051619982601088 -42
789051619990295424 -40
789051619997989760 -54
789051620005684096 -94
789051620013378560 -75
789051620021072896 116
789051620028767232 435
789051620036461568 665
789051620044156032 601
789051620051850368 255
789051620059544704 -108
789051620067239040 -201
789051620074933504 -80
789051620082627840 -54
789051620090322176 -108
789051620098016512 -89
789051620105710976 -66
789051620113405312 -80
789051620121099648 -82
789051620128793984 -68
789051620136488448 -61
789051620144182784 -56
789051620151877134 -54
789051620159571456 -49
789051620167265792 -44
789051620174960256 -42
789051620182654592 -28
789051620190348928 -16
789051620198043264 -16
789051620205737728 -21
789051620213432064 -9
789051620221126400 2
789051620228820736 11
789051620236515200 23
789051620244209536 23
789051620251903872 18
789051620259598208 23
789051620267292672 37
789051620274987008 44
789051620282681344 49
789051620290375680 59
789051620298070144 61
789051620305764480 52
789051620313458816 44
789051620321153152 37
789051620328847616 30
789051620336541952 18
789051620344236288 4
789051620351930624 -9
789051620359625088 -35
789051620367319424 -61
789051620375013760 -66
789051620382708096 -63
789051620390402560 -71
789051620398096896 -87
789051620405791232 -92
789051620413485568 -78
789051620421180032 -63
789051620428874368 -66
789051620436568704 -68
789051620444263040 -56
789051620451957504 -56
789051620459651840 -59
789051620467346176 -47
789051620475040512 -40
789051620482734976 -47
789051620490429312 -54
789051620498123648 -49
789051620505817984 -47
789051620513512448 -52
789051620521206784 -56
789051620528901120 -49
789051620536595456 -49
789051620544289920 -59
789051620551984256 -56
789051620559678592 -42
789051620567372928 -40
789051620575067392 -47
789051620582761728 -49
789051620590456064 -47
789051620598150400 -40
789051620605844864 -26
789051620613539200 0
789051620621233536 16
789051620628927872 7
789051620636622336 -14
789051620644316672 -30
789051620652011008 -35
789051620659705344 -37
789051620667399808 -35
789051620675094144 -37
789051620682788480 -35
789051620690482816 -30
789051620698177280 -37
789051620705871616 -37
789051620713566010 -23
789051620721260800 -21
789051620728955648 -30
789051620736650368 -28
789051620744345216 -40
789051620752039936 -78
789051620759734784 -44
789051620767429504 172
789051620775124352 504
789051620782819072 703
789051620790513920 561
789051620798208640 161
789051620805903488 -168
789051620813598208 -196
789051620821293056 -75
789051620828987776 -73
789051620836682624 -118
789051620844377344 -89
789051620852072192 -71
789051620859766912 -80
789051620867461760 -78
789051620875156480 -68
789051620882851328 -63
789051620890546048 -54
789051620898240896 -44
789051620905935616 -42
789051620913630464 -42
789051620921325184 -35
789051620929020032 -30
789051620936714752 -26
789051620944409600 -14
789051620952104448 0
789051620959799168 4
789051620967494016 9
789051620975188736 16
789051620982883584 33
789051620990578304 47
789051620998273152 54
789051621005967872 61
789051621013662720 68
789051621021357440 75
789051621029052288 75
789051621036747008 80
789051621044441856 85
789051621052136576 75
789051621059831424 52
789051621067526144 37
789051621075220992 37
789051621082915712 28
789051621090610560 7
789051621098305280 -14
789051621106000128 -33
789051621113694848 -49
789051621121389696 -59
789051621129084416 -73
789051621136779264 -97
789051621144473984 -125
789051621152168832 -125
789051621159863552 -101
789051621167558400 -78
789051621175253248 -73
789051621182947968 -89
789051621190642816 -97
789051621198337536 -80
789051621206032384 -78
789051621213727104 -101
789051621221421952 -92
789051621229116672 -66
789051621236811520 -82
789051621244506240 -85
789051621252201088 -75
789051621259895808 -80
789051621267590656 -59
789051621275285404 -47
789051621282979712 -75
789051621290674048 -73
789051621298368512 -47
789051621306062848 -68
789051621313757184 -94
789051621321451520 -85
789051621329145984 -80
789051621336840320 -85
789051621344534656 -85
789051621352228992 -75
789051621359923456 -68
789051621367617792 -66
789051621375312128 -42
789051621383006464 -16
789051621390700928 -21
789051621398395264 -18
789051621406089600 -26
789051621413783936 -71
789051621421478400 -87
789051621429172736 -78
789051621436867072 -78
789051621444561408 -61
789051621452255872 -35
789051621459950208 -37
789051621467644544 -47
789051621475338880 -49
789051621483033344 -52
789051621490727680 -54
789051621498422016 -54
789051621506116352 -71
789051621513810816 -118
789051621521505152 -111
789051621529199488 40
789051621536893824 324
789051621544588288 606
789051621552282624 622
789051621559976960 291
789051621567671296 -80
789051621575365760 -210
789051621583060096 -127
789051621590754432 -68
789051621598448768 -92
789051621606143232 -94
789051621613837568 -92
789051621621531904 -106
789051621629226240 -99
789051621636920704 -80
789051621644615040 -49
789051621652309376 -33
789051621660003712 -66
789051621667698176 -82
789051621675392512 -47
789051621683086848 -21
789051621690781184 -42
789051621698475648 -44
789051621706169984 -11
789051621713864320 -2
789051621721558656 -14
789051621729253120 14
789051621736947456 49
789051621744641792 30
789051621752336128 16
789051621760030592 47
789051621767724928 56
789051621775419264 52
789051621783113600 82
789051621790808064 101
789051621798502400 87
789051621806196736 66
789051621813891072 59
789051621821585536 89
789051621829279872 97
789051621836974280 44
789051621844669184 23
789051621852364032 33
789051621860058752 14
789051621867753600 -2
789051621875448320 -2
789051621883143168 -16
789051621890837888 -49
789051621898532736 -75
789051621906227456 -80
789051621913922304 -68
789051621921617024 -44
789051621929311872 -47
789051621937006592 -59
789051621944701440 -54
789051621952396160 -59
789051621960091008 -49
789051621967785728 -33
789051621975480576 -40
789051621983175296 -42
789051621990870144 -42
789051621998564864 -40
789051622006259712 -30
789051622013954432 -52
789051622021649280 -63
789051622029344000 -30
789051622037038848 -30
789051622044733568 -78
789051622052428416 -66
789051622060123136 -21
789051622067817984 -44
789051622075512832 -89
789051622083207552 -66
789051622090902400 -14
789051622098597120 -14
789051622106291968 -59
789051622113986688 -68
789051622121681536 -59
789051622129376256 -63
789051622137071104 -47
789051622144765824 -7
789051622152460672 14
789051622160155392 -9
789051622167850240 -40
789051622175544960 -59
789051622183239808 -56
789051622190934528 -33
789051622198629376 -30
789051622206324096 -47
789051622214018944 -54
789051622221713664 -68
789051622229408512 -71
789051622237103232 -54
789051622244798080 -47
789051622252492800 -40
789051622260187648 -40
789051622267882368 -73
789051622275577216 -89
789051622283271936 -56
789051622290966784 42
789051622298661632 274
789051622306356352 565
789051622314051200 625
789051622321745920 350
789051622329440768 -14
789051622337135488 -210
789051622344830336 -156
789051622352525056 -56
789051622360219904 -75
789051622367914624 -104
789051622375609472 -85
789051622383304192 -94
789051622390999040 -111
789051622398693674 -92
789051622406387968 -75
789051622414082304 -66
789051622421776768 -52
789051622429471104 -68
789051622437165440 -108
789051622444859776 -97
789051622452554240 -49
789051622460248576 -54
789051622467942912 -59
789051622475637248 -30
789051622483331712 -35
789051622491026048 -44
789051622498720384 -18
789051622506414720 -9
789051622514109184 -18
789051622521803520 7
789051622529497856 44
789051622537192192 44
789051622544886656 47
789051622552580992 66
789051622560275328 56
789051622567969664 33
789051622575664128 33
789051622583358464 26
789051622591052800 -11
789051622598747136 -18
789051622606441600 7
789051622614135936 -7
789051622621830272 -42
789051622629524608 -54
789051622637219072 -78
789051622644913408 -118
789051622652607744 -125
789051622660302080 -113
789051622667996544 -123
789051622675690880 -127
789051622683385216 -111
789051622691079552 -111
789051622698774016 -120
789051622706468352 -116
789051622714162688 -104
789051622721857024 -85
789051622729551488 -85
789051622737245824 -104
789051622744940160 -101
789051622752634496 -92
789051622760328960 -92
789051622768023296 -89
789051622775717632 -92
789051622783411968 -87
789051622791106432 -75
789051622798800768 -87
789051622806495104 -101
789051622814189440 -99
789051622821883904 -101
789051622829578240 -111
789051622837272576 -97
789051622844966912 -63
789051622852661376 -59
789051622860355712 -73
789051622868050048 -63
789051622875744384 -52
789051622883438848 -63
789051622891133184 -71
789051622898827520 -80
789051622906521856 -99
789051622914216320 -99
789051622921910656 -99
789051622929604992 -108
789051622937299328 -99
789051622944993792 -106
789051622952688128 -132
789051622960382552 -120
789051622968077440 -85
789051622975772288 -92
789051622983467008 -113
789051622991161856 -113
789051622998856576 -158
789051623006551424 -201
789051623014246144 -85
789051623021940992 196
789051623029635712 468
789051623037330560 532
789051623045025280 296
789051623052720128 -89
789051623060414848 -293
789051623068109696 -220
789051623075804416 -156
789051623083499264 -206
789051623091193984 -189
789051623098888832 -127
789051623106583552 -144
789051623114278400 -168
789051623121973120 -142
789051623129667968 -123
789051623137362688 -127
789051623145057536 -118
789051623152752256 -97
789051623160447104 -92
789051623168141824 -94
789051623175836672 -85
789051623183531392 -73
789051623191226240 -68
789051623198921088 -68
789051623206615808 -49
789051623214310656 -26
789051623222005376 -21
789051623229700224 -9
789051623237394944 9
789051623245089792 14
789051623252784512 30
789051623260479360 49
789051623268174080 37
789051623275868928 30
789051623283563648 63
789051623291258496 71
789051623298953216 37
789051623306648064 30
789051623314342784 49
789051623322037632 42
789051623329732352 16
789051623337427200 7
789051623345121920 2
789051623352816768 -16
789051623360511488 -42
789051623368206336 -59
789051623375901056 -63
789051623383595904 -61
789051623391290624 -66
789051623398985472 -73
789051623406680192 -68
789051623414375040 -61
789051623422069888 -59
789051623429764608 -49
789051623437459456 -44
789051623445154176 -49
789051623452849024 -47
789051623460543744 -42
789051623468238592 -44
789051623475933312 -37
789051623483628160 -26
789051623491322880 -30
789051623499017728 -35
789051623506712448 -37
789051623514407296 -44
789051623522101946 -42
789051623529796480 -33
789051623537491072 -28
789051623545185792 -33
789051623552880384 -40
789051623560575104 -42
789051623568269696 -42
789051623575964416 -52
789051623583659008 -59
789051623591353600 -42
789051623599048320 -16
789051623606742912 -28
789051623614437632 -44
789051623622132224 -14
789051623629826944 4
789051623637521536 -23
789051623645216128 -30
789051623652910848 -30
789051623660605440 -63
789051623668300160 -63
789051623675994752 -33
789051623683689472 -30
789051623691384064 -47
789051623699078656 -44
789051623706773376 -37
789051623714467968 -47
789051623722162688 -52
789051623729857280 -28
789051623737552000 -23
789051623745246592 -40
789051623752941184 -47
789051623760635904 -78
789051623768330496 -56
789051623776025216 134
789051623783719808 419
789051623791414528 603
789051623799109120 544
789051623806803712 243
789051623814498432 -89
789051623822193024 -179
789051623829887744 -63
789051623837582336 -35
789051623845277056 -89
789051623852971648 -73
789051623860666240 -42
789051623868360960 -63
789051623876055552 -87
789051623883750272 -68
789051623891444864 -40
789051623899139584 -30
789051623906834176 -37
789051623914528768 -44
789051623922223488 -18
789051623929918080 -9
789051623937612800 -28
789051623945307392 -18
789051623953002112 9
789051623960696704 4
789051623968391296 -2
789051623976086016 11
789051623983780608 21
789051623991475328 18
789051623999169920 21
789051624006864640 23
789051624014559232 33
789051624022253824 49
789051624029948544 66
789051624037643136 61
789051624045337856 49
789051624053032448 54
789051624060727168 61
789051624068421760 47
789051624076116352 37
789051624083811168 33
789051624091505664 18
789051624099200128 11
789051624106894720 4
789051624114589184 -21
789051624122283648 -47
789051624129978240 -54
789051624137672704 -63
789051624145367168 -89
789051624153061760 -106
789051624160756224 -89
789051624168450688 -78
789051624176145280 -87
789051624183839744 -87
789051624191534208 -80
789051624199228800 -82
789051624206923264 -78
789051624214617728 -59
789051624222312320 -44
789051624230006784 -47
789051624237701248 -54
789051624245395840 -54
789051624253090304 -54
789051624260784768 -56
789051624268479360 -52
789051624276173824 -52
789051624283868288 -66
789051624291562880 -68
789051624299257344 -52
789051624306951936 -40
789051624314646400 -42
789051624322340864 -59
789051624330035456 -63
789051624337729920 -40
789051624345424384 -28
789051624353118976 -40
789051624360813440 -44
789051624368507904 -44
789051624376202496 -52
789051624383896960 -49
789051624391591424 -35
789051624399286016 -18
789051624406980480 2
789051624414674944 18
789051624422369536 18
789051624430064000 21
789051624437758464 14
789051624445453056 -18
789051624453147520 -35
789051624460841984 -28
789051624468536576 -30
789051624476231040 -37
789051624483925504 -26
789051624491620096 -35
789051624499314560 -66
789051624507009024 -47
789051624514703616 -16
789051624522398080 -23
789051624530092544 -26
789051624537787136 -40
789051624545481600 -92
789051624553176064 -73
789051624560870656 97
789051624568565120 350
789051624576259584 577
789051624583954176 608
789051624591648640 357
789051624599343104 -2
789051624607037696 -179
789051624614732160 -94
789051624622426624 -21
789051624630121216 -87
789051624637815680 -108
789051624645510216 -61
789051624653204608 -52
789051624660898944 -63
789051624668593408 -42
789051624676287744 -30
789051624683982080 -49
789051624691676416 -56
789051624699370880 -47
789051624707065216 -35
789051624714759552 -44
789051624722453888 -61
789051624730148352 -33
789051624737842688 -9
789051624745537024 -26
789051624753231360 -21
789051624760925824 2
789051624768620160 9
789051624776314496 7
789051624784008832 16
789051624791703296 26
789051624799397632 26
789051624807091968 37
789051624814786304 56
789051624822480768 73
789051624830175104 80
789051624837869440 61
789051624845563776 59
789051624853258240 71
789051624860952576 47
789051624868646912 16
789051624876341248 21
789051624884035712 35
789051624891730048 23
789051624899424384 -16
789051624907118720 -33
789051624914813184 -26
789051624922507520 -40
789051624930201856 -71
789051624937896192 -73
789051624945590656 -44
789051624953284992 -28
789051624960979328 -49
789051624968673664 -71
789051624976368128 -54
789051624984062464 -33
789051624991756800 -49
789051624999451136 -63
789051625007145600 -40
789051625014839936 -23
789051625022534272 -42
789051625030228608 -42
789051625037923072 -28
789051625045617408 -26
789051625053311744 -30
789051625061006080 -40
789051625068700544 -42
789051625076394880 -37
789051625084089216 -44
789051625091783552 -47
789051625099478016 -37
789051625107172352 -28
789051625114866688 -33
789051625122561024 -37
789051625130255488 -40
789051625137949824 -52
789051625145644160 -52
789051625153338496 -35
789051625161032960 -18
789051625168727296 -21
789051625176421632 -49
789051625184115968 -42
789051625191810432 -23
789051625199504768 -52
789051625207199092 -23
789051625214893952 42
789051625222588800 21
789051625230283520 -16
789051625237978368 4
789051625245673088 -7
789051625253367936 -63
789051625261062656 -71
789051625268757504 -42
789051625276452224 -44
789051625284147072 -61
789051625291841792 -44
789051625299536640 -40
789051625307231360 -61
789051625314926208 -59
789051625322620928 -44
789051625330315776 -42
789051625338010496 -42
789051625345705344 -56
789051625353400064 -89
789051625361094912 -49
789051625368789632 165
789051625376484480 478
789051625384179200 651
789051625391874048 523
789051625399568768 179
789051625407263616 -130
789051625414958336 -177
789051625422653184 -61
789051625430347904 -73
789051625438042752 -146
789051625445737600 -113
789051625453432320 -56
789051625461127168 -99
789051625468821888 -151
789051625476516736 -104
789051625484211456 -44
789051625491906304 -61
789051625499601024 -89
789051625507295872 -71
789051625514990592 -40
789051625522685440 -42
789051625530380160 -52
789051625538075008 -42
789051625545769728 -30
789051625553464576 0
789051625561159296 21
789051625568854144 0
789051625576548864 -14
789051625584243712 -2
789051625591938432 18
789051625599633280 75
789051625607328000 116
789051625615022848 80
789051625622717568 54
789051625630412416 61
789051625638107136 61
789051625645801984 75
789051625653496704 92
789051625661191552 80
789051625668886400 56
789051625676581120 54
789051625684275968 54
789051625691970688 23
789051625699665536 -4
789051625707360256 -9
789051625715055104 -23
789051625722749824 -47
789051625730444672 -52
789051625738139392 -47
789051625745834240 -63
789051625753528960 -71
789051625761223808 -59
789051625768918486 -73
789051625776612864 -82
789051625784307200 -35
789051625792001664 -9
789051625799696000 -35
789051625807390336 -47
789051625815084672 -37
789051625822779136 -59
789051625830473472 -92
789051625838167808 -80
789051625845862144 -56
789051625853556608 -61
789051625861250944 -47
789051625868945280 -23
789051625876639616 -33
789051625884334080 -61
789051625892028416 -71
789051625899722752 -66
789051625907417088 -75
789051625915111552 -68
789051625922805888 -33
789051625930500224 -26
789051625938194560 -49
789051625945889024 -47
789051625953583360 -28
789051625961277696 -4
789051625968972032 26
789051625976666496 23
789051625984360832 -16
789051625992055168 -37
789051625999749504 -30
789051626007443968 -35
789051626015138304 -47
789051626022832640 -33
789051626030526976 -54
789051626038221440 -94
789051626045915776 -44
789051626053610112 26
789051626061304448 -2
789051626068998912 -37
789051626076693248 -14
789051626084387584 -23
789051626092081920 -63
789051626099776384 -89
789051626107470720 -66
789051626115165056 94
789051626122859392 362
789051626130553856 580
789051626138248192 610
789051626145942528 388
789051626153636864 18
789051626161331328 -203
789051626169025664 -146
789051626176720000 -52
789051626184414336 -92
789051626192108800 -118
789051626199803136 -87
789051626207497472 -78
789051626215191808 -71
789051626222886272 -66
789051626230580608 -80
789051626238274944 -75
789051626245969280 -54
789051626253663744 -47
789051626261358080 -33
789051626269052416 -14
789051626276746752 -44
789051626284441216 -54
789051626292135552 11
789051626299829888 21
789051626307524224 -33
789051626315218688 -33
789051626322913024 -2
789051626330607362 4
789051626338302080 28
789051626345996800 78
789051626353691520 108
789051626361386240 71
789051626369080960 16
789051626376775680 42
789051626384470400 97
789051626392165120 87
789051626399859840 30
789051626407554560 -7
789051626415249280 -18
789051626422944000 -82
789051626430638720 -97
789051626438333440 2
789051626446028160 23
789051626453722880 -54
789051626461417600 -4
789051626469112320 87
789051626476807040 35
789051626484501632 -28
789051626492196352 -11
789051626499891072 -9
789051626507585792 -59
789051626515280512 -73
789051626522975232 -42
789051626530669952 -94
789051626538364672 -151
789051626546059392 -71
789051626553754112 -2
789051626561448832 -56
789051626569143552 -132
789051626576838272 -108
789051626584532992 -11
789051626592227712 -16
789051626599922432 -92
789051626607617152 -85
789051626615311872 -68
789051626623006592 -97
789051626630701312 -80
789051626638396032 -44
789051626646090752 -75
789051626653785472 -89
789051626661480192 -54
789051626669174912 -94
789051626676869632 -120
789051626684564352 -68
789051626692259072 -63
789051626699953792 -9
789051626707648512 68
789051626715343232 11
789051626723037952 -56
789051626730732672 -66
789051626738427392 -94
789051626746122112 -104
789051626753816832 -54
789051626761511552 -40
789051626769206272 -56
789051626776900864 -47
789051626784595584 -92
789051626792290304 -146
789051626799985024 -59
789051626807679744 21
789051626815374464 -28
789051626823069184 -71
789051626830763904 -85
789051626838458624 -82
789051626846153344 -7
789051626853848064 113
789051626861542784 326
789051626869237504 563
789051626876932224 509
789051626884626944 165
789051626892321672 -108
789051626900016128 -165
789051626907710592 -134
789051626915405056 -116
789051626923099392 -75
789051626930793856 -54
789051626938488320 -108
789051626946182784 -106
789051626953877248 -18
789051626961571584 7
789051626969266048 -18
789051626976960512 23
789051626984654976 52
789051626992349440 -26
789051627000043776 -73
789051627007738240 -30
789051627015432704 16
789051627023127168 37
789051627030821632 71
789051627038515968 68
789051627046210432 4
789051627053904896 0
789051627061599360 37
789051627069293824 7
789051627076988160 -30
789051627084682624 54
789051627092377088 153
789051627100071552 85
789051627107765888 -2
789051627115460352 52
789051627123154816 123
789051627130849280 89
789051627138543744 0
789051627146238080 11
789051627153932544 78
789051627161627008 37
789051627169321472 -33
789051627177015936 14
789051627184710272 97
789051627192404736 18
789051627200099200 -89
789051627207793664 -63
789051627215488128 -47
789051627223182464 -85
789051627230876928 -97
789051627238571392 -63
789051627246265856 -47
789051627253960320 -73
789051627261654656 -40
789051627269349120 2
789051627277043584 -85
789051627284738048 -139
789051627292432512 -66
789051627300126848 -47
789051627307821312 -82
789051627315515776 -7
789051627323210240 23
789051627330904704 -89
789051627338599040 -75
789051627346293504 16
789051627353987968 -11
789051627361682432 -42
789051627369376896 -16
789051627377071232 -14
789051627384765696 -92
789051627392460160 -170
789051627400154624 -68
789051627407849088 92
789051627415543424 40
789051627423237888 -85
789051627430932352 -18
789051627438626816 44
789051627446321152 -142
789051627454015634 -116
789051627461709952 89
789051627469404288 -139
789051627477098752 -274
789051627484793088 2
789051627492487424 97
789051627500181760 -26
789051627507876224 -92
789051627515570560 2
789051627523264896 37
789051627530959232 -104
789051627538653696 -161
789051627546348032 -113
789051627554042368 54
789051627561736704 269
789051627569431168 371
789051627577125504 490
789051627584819840 539
789051627592514176 189
789051627600208640 -319
789051627607902976 -305
789051627615597312 11
789051627623291648 -28
789051627630986112 -156
789051627638680448 -54
789051627646374784 -35
789051627654069120 -158
789051627661763584 -134
789051627669457920 -47
789051627677152256 -52
789051627684846592 -49
789051627692541056 -49
789051627700235392 -101
789051627707929728 -108
789051627715624064 -37
789051627723318528 16
789051627731012864 11
789051627738707200 -33
789051627746401536 -61
789051627754096000 -21
789051627761790336 9
789051627769484672 -11
789051627777179008 2
789051627784873472 56
789051627792567808 71
789051627800262144 35
789051627807956480 26
789051627815650944 52
789051627823345280 68
789051627831039616 71
789051627838733952 54
789051627846428416 14
789051627854122752 14
789051627861817088 63
789051627869511424 66
789051627877205888 11
789051627884900224 -18
789051627892594560 -42
789051627900288896 -47
789051627907983360 -40
789051627915677696 -97
789051627923372032 -146
789051627931066368 -104
789051627938760832 -80
789051627946455168 -116
789051627954149504 -101
789051627961843840 -71
789051627969538304 -85
789051627977232640 -101
789051627984926976 -106
789051627992621312 -104
789051628000315776 -68
789051628008010112 -63
789051628015704510 -111
789051628023399296 -108
789051628031094144 -78
789051628038788864 -94
789051628046483712 -89
789051628054178432 -40
789051628061873280 -33
789051628069568000 -66
789051628077262848 -94
789051628084957568 -85
789051628092652416 -61
789051628100347136 -85
789051628108041984 -116
789051628115736704 -97
789051628123431552 -89
789051628131126272 -118
789051628138821120 -99
789051628146515840 -54
789051628154210688 -75
789051628161905408 -106
789051628169600256 -85
789051628177294976 -82
789051628184989824 -123
789051628192684544 -106
789051628200379392 -61
789051628208074112 -99
789051628215768960 -82
789051628223463680 142
789051628231158528 423
789051628238853248 549
789051628246548096 459
789051628254242944 179
789051628261937664 -142
789051628269632512 -265
789051628277327232 -198
789051628285022080 -206
789051628292716800 -286
789051628300411648 -241
789051628308106368 -120
789051628315801216 -113
789051628323495936 -194
789051628331190784 -213
789051628338885504 -153
789051628346580352 -127
789051628354275072 -182
789051628361969920 -210
789051628369664640 -149
789051628377359488 -73
789051628385054208 -75
789051628392749056 -144
789051628400443776 -142
789051628408138624 -52
789051628415833344 -23
789051628423528192 -49
789051628431222912 -37
789051628438917760 -35
789051628446612480 -52
789051628454307328 -26
789051628462002048 11
789051628469696896 26
789051628477391744 40
789051628485086464 49
789051628492781312 30
789051628500476032 11
789051628508170880 23
789051628515865600 21
789051628523560448 -2
789051628531255168 0
789051628538950016 4
789051628546644736 -11
789051628554339584 -18
789051628562034304 -40
789051628569729152 -97
789051628577423904 -123
789051628585118720 -89
789051628592813568 -80
789051628600508288 -108
789051628608203136 -111
789051628615897856 -99
789051628623592704 -113
789051628631287424 -134
789051628638982272 -144
789051628646676992 -149
789051628654371840 -146
789051628662066560 -130
789051628669761408 -120
789051628677456128 -137
789051628685150976 -158
789051628692845696 -168
789051628700540544 -156
789051628708235264 -125
789051628715930112 -120
789051628723624832 -130
789051628731319680 -123
789051628739014400 -134
789051628746709248 -158
789051628754403968 -170
789051628762098816 -187
789051628769793536 -198
789051628777488384 -187
789051628785183104 -177
789051628792877952 -165
789051628800572672 -158
789051628808267520 -172
789051628815962368 -172
789051628823657088 -153
789051628831351936 -146
789051628839046656 -149
789051628846741504 -153
789051628854436224 -179
789051628862131072 -187
789051628869825792 -94
789051628877520640 139
789051628885215360 447
789051628892910208 606
789051628900604928 388
789051628908299776 -37
789051628915994496 -277
789051628923689344 -217
789051628931384064 -123
789051628939078912 -149
789051628946773632 -175
789051628954468480 -137
789051628962163200 -123
789051628969858048 -132
789051628977552768 -132
789051628985247616 -118
789051628992942336 -111
789051629000637184 -116
789051629008331904 -108
789051629016026752 -89
789051629023721472 -89
789051629031416320 -94
789051629039111168 -99
789051629046805888 -94
789051629054500736 -52
789051629062195456 -23
789051629069890304 -42
789051629077585024 -40
789051629085279872 -4
789051629092974592 2
789051629100669440 -11
789051629108364160 -7
789051629116059008 14
789051629123753728 16
789051629131448576 2
789051629139143298 0
789051629146837632 2
789051629154531968 -18
789051629162226432 -26
789051629169920768 -2
789051629177615104 -21
789051629185309440 -75
789051629193003904 -99
789051629200698240 -108
789051629208392576 -137
789051629216086912 -156
789051629223781376 -168
789051629231475712 -196
789051629239170048 -201
789051629246864384 -184
789051629254558848 -191
789051629262253184 -198
789051629269947520 -189
789051629277641856 -184
789051629285336320 -179
789051629293030656 -170
789051629300724992 -175
789051629308419328 -187
789051629316113792 -172
789051629323808128 -151
789051629331502464 -139
789051629339196800 -125
789051629346891264 -101
789051629354585600 -87
789051629362279936 -94
789051629369974272 -125
789051629377668736 -156
789051629385363072 -179
789051629393057408 -182
789051629400751744 -184
789051629408446208 -182
789051629416140544 -175
789051629423834880 -189
789051629431529216 -206
789051629439223680 -189
789051629446918016 -172
789051629454612352 -179
789051629462306688 -182
789051629470001152 -182
789051629477695488 -215
789051629485389824 -258
789051629493084160 -253
789051629500778624 -75
789051629508472960 326
789051629516167296 736
789051629523861632 833
789051629531556096 544
789051629539250432 49
789051629546944768 -279
789051629554639104 -217
789051629562333568 -82
789051629570027904 -118
789051629577722240 -132
789051629585416576 -85
789051629593111040 -80
789051629600805376 -87
789051629608499712 -82
789051629616194048 -78
789051629623888512 -61
789051629631582848 -42
789051629639277184 -42
789051629646971520 -33
789051629654665984 -18
789051629662360320 -11
789051629670054656 -4
789051629677748992 11
789051629685443456 30
789051629693137792 21
789051629700832174 7
789051629708526464 33
789051629716220800 63
789051629723915264 66
789051629731609600 71
789051629739303936 104
789051629746998272 120
789051629754692736 101
789051629762387072 89
789051629770081408 94
789051629777775744 92
789051629785470208 87
789051629793164544 89
789051629800858880 97
789051629808553216 89
789051629816247680 56
789051629823942016 30
789051629831636352 33
789051629839330688 28
789051629847025152 9
789051629854719488 -11
789051629862413824 -28
789051629870108160 -28
789051629877802624 -26
789051629885496960 -33
789051629893191296 -16
789051629900885632 9
789051629908580096 4
789051629916274432 2
789051629923968768 18
789051629931663104 23
789051629939357568 11
789051629947051904 26
789051629954746240 61
789051629962440576 68
789051629970135040 52
789051629977829376 47
789051629985523712 35
789051629993218048 14
789051630000912512 0
789051630008606848 -16
789051630016301184 -23
789051630023995520 -4
789051630031689984 -16
789051630039384320 -33
789051630047078656 -14
789051630054772992 -21
789051630062467456 -40
789051630070161792 -21
789051630077856128 -18
789051630085550464 -40
789051630093244928 -68
789051630100939264 -116
789051630108633600 -37
789051630116327936 326
789051630124022400 753
789051630131716736 921
789051630139411072 753
789051630147105408 265
789051630154799872 -234
789051630162494208 -272
789051630170188544 -63
789051630177882880 -49
789051630185577344 -92
789051630193271680 -52
789051630200966016 -56
789051630208660352 -75
789051630216354816 -42
789051630224049152 -18
789051630231743488 -33
789051630239437824 -30
789051630247132288 -4
789051630254826624 2
789051630262521052 -30
789051630270215424 -42
789051630277909760 -11
789051630285604224 2
789051630293298560 -2
789051630300992896 7
789051630308687232 21
789051630316381696 47
789051630324076032 68
789051630331770368 73
789051630339464704 78
789051630347159168 111
789051630354853504 132
789051630362547840 94
789051630370242176 73
789051630377936640 99
789051630385630976 113
789051630393325312 99
789051630401019648 78
789051630408714112 78
789051630416408448 78
789051630424102784 54
789051630431797120 49
789051630439491584 54
789051630447185920 26
789051630454880256 -9
789051630462574592 -30
789051630470269056 -54
789051630477963392 -59
789051630485657728 -21
789051630493352064 9
789051630501046528 -9
789051630508740864 -42
789051630516435200 -56
789051630524129536 -49
789051630531824000 -21
789051630539518336 18
789051630547212672 71
789051630554907008 111
789051630562601472 161
789051630570295808 229
789051630577990144 158
789051630585684480 -4
789051630593378944 -61
789051630601073280 -94
789051630608767616 -139
789051630616461952 -59
789051630624156416 21
789051630631850752 7
789051630639545088 47
789051630647239424 111
789051630654933888 9
789051630662628224 -146
789051630670322560 -99
789051630678016896 37
789051630685711360 37
789051630693405696 -33
789051630701100032 -66
789051630708794368 26
789051630716488832 378
789051630724183168 767
789051630731877504 902
789051630739571840 760
789051630747266304 288
789051630754960640 -203
789051630762654976 -187
789051630770349312 40
789051630778043776 -44
789051630785738112 -179
789051630793432448 -92
789051630801126784 -11
789051630808821248 -40
789051630816515584 -49
789051630824209928 -16
789051630831904768 -9
789051630839599616 -9
789051630847294336 14
789051630854989184 35
789051630862683904 26
789051630870378752 0
789051630878073472 -2
789051630885768320 7
789051630893463040 4
789051630901157888 21
789051630908852608 56
789051630916547456 75
789051630924242176 66
789051630931937024 68
789051630939631744 101
789051630947326592 137
789051630955021312 139
789051630962716160 132
789051630970410880 139
789051630978105728 137
789051630985800448 125
789051630993495296 120
789051631001190016 113
789051631008884864 116
789051631016579584 113
789051631024274432 75
789051631031969152 52
789051631039664000 56
789051631047358720 37
789051631055053568 11
789051631062748416 -2
789051631070443136 -28
789051631078137984 -40
789051631085832704 -21
789051631093527552 -2
789051631101222272 0
789051631108917120 -28
789051631116611840 -47
789051631124306688 -28
789051631132001408 -37
789051631139696256 -68
789051631147390976 -56
789051631155085824 -30
789051631162780544 -33
789051631170475392 -33
789051631178170112 -14
789051631185864960 -4
789051631193559680 -30
789051631201254528 -73
789051631208949248 -78
789051631216644096 -54
789051631224338816 -56
789051631232033664 -68
789051631239728384 -61
789051631247423232 -56
789051631255117952 -66
789051631262812800 -47
789051631270507520 -23
789051631278202368 -52
789051631285897216 -94
789051631293591936 -113
789051631301286784 -104
789051631308981504 61
789051631316676352 435
789051631324371072 788
789051631332065920 878
789051631339760640 613
789051631347455488 85
789051631355150208 -274
789051631362845056 -189
789051631370539776 -71
789051631378234624 -153
789051631385929322 -175
789051631393623680 -130
789051631401318016 -134
789051631409012480 -127
789051631416706816 -111
789051631424401152 -82
789051631432095488 -87
789051631439789952 -139
789051631447484288 -120
789051631455178624 -61
789051631462872960 -89
789051631470567424 -118
789051631478261760 -61
789051631485956096 -40
789051631493650432 -94
789051631501344896 -101
789051631509039232 -47
789051631516733568 -23
789051631524427904 -26
789051631532122368 2
789051631539816704 26
789051631547511040 16
789051631555205376 18
789051631562899840 47
789051631570594176 59
789051631578288512 28
789051631585982848 9
789051631593677312 28
789051631601371648 28
789051631609065984 23
789051631616760320 37
789051631624454784 11
789051631632149120 -14
789051631639843456 -16
789051631647537792 -52
789051631655232256 -71
789051631662926592 -68
789051631670620928 -82
789051631678315264 -71
789051631686009728 -63
789051631693704064 -99
789051631701398400 -80
789051631709092736 -26
789051631716787200 -73
789051631724481536 -111
789051631732175872 -75
789051631739870208 -63
789051631747564672 -61
789051631755259008 -28
789051631762953344 -40
789051631770647680 -87
789051631778342144 -68
789051631786036480 -35
789051631793730816 -87
789051631801425152 -142
789051631809119616 -111
789051631816813952 -75
789051631824508288 -92
789051631832202624 -97
789051631839897088 -87
789051631847591424 -92
789051631855285760 -94
789051631862980096 -85
789051631870674560 -94
789051631878368896 -137
789051631886063232 -130
789051631893757568 68
789051631901452032 423
789051631909146368 717
789051631916840704 762
789051631924535040 485
789051631932229504 -9
789051631939923840 -298
789051631947618198 -182
789051631955312512 -75
789051631963006848 -153
789051631970701312 -189
789051631978395648 -161
789051631986089984 -153
789051631993784320 -142
789051632001478784 -125
789051632009173120 -132
789051632016867456 -137
789051632024561792 -123
789051632032256256 -118
789051632039950592 -123
789051632047644928 -101
789051632055339264 -80
789051632063033728 -75
789051632070728064 -66
789051632078422400 -63
789051632086116736 -71
789051632093811200 -59
789051632101505536 -40
789051632109199872 -28
789051632116894208 -11
789051632124588672 0
789051632132283008 -2
789051632139977344 7
789051632147671680 21
789051632155366144 21
789051632163060480 11
789051632170754816 14
789051632178449152 14
789051632186143616 0
789051632193837952 2
789051632201532288 4
789051632209226624 -14
789051632216921088 -37
789051632224615424 -47
789051632232309760 -56
789051632240004096 -71
789051632247698560 -66
789051632255392896 -49
789051632263087232 -52
789051632270781568 -85
789051632278476032 -92
789051632286170368 -68
789051632293864704 -54
789051632301559040 -42
789051632309253504 -30
789051632316947840 -54
789051632324642176 -61
789051632332336512 -30
789051632340030976 -30
789051632347725312 -82
789051632355419648 -108
789051632363113984 -97
789051632370808448 -92
789051632378502784 -44
789051632386197120 23
789051632393891456 0
789051632401585920 -73
789051632409280256 -89
789051632416974592 -71
789051632424668928 -61
789051632432363392 -61
789051632440057728 -82
789051632447752064 -123
789051632455446400 -146
789051632463140864 -78
789051632470835200 161
789051632478529536 506
789051632486223872 748
789051632493918336 700
789051632501612672 331
789051632509307074 -123
789051632517001984 -260
789051632524696832 -118
789051632532391552 -97
789051632540086400 -177
789051632547781120 -170
789051632555475968 -151
789051632563170688 -161
789051632570865536 -161
789051632578560256 -168
789051632586255104 -175
789051632593949824 -163
789051632601644672 -146
789051632609339392 -137
789051632617034240 -120
789051632624728960 -113
789051632632423808 -120
789051632640118528 -116
789051632647813376 -97
789051632655508096 -85
789051632663202944 -82
789051632670897664 -66
789051632678592512 -44
789051632686287232 -37
789051632693982080 -42
789051632701676800 -40
789051632709371648 -26
789051632717066368 -16
789051632724761216 -18
789051632732455936 -35
789051632740150784 -42
789051632747845632 -30
789051632755540352 -28
789051632763235200 -42
789051632770929920 -47
789051632778624768 -47
789051632786319488 -54
789051632794014336 -59
789051632801709056 -66
789051632809403904 -73
789051632817098624 -75
789051632824793472 -80
789051632832488192 -82
789051632840183040 -78
789051632847877760 -80
789051632855572608 -78
789051632863267328 -63
789051632870962176 -63
789051632878656896 -78
789051632886351744 -71
789051632894046464 -52
789051632901741312 -49
789051632909436032 -56
789051632917130880 -66
789051632924825600 -89
789051632932520448 -111
789051632940215168 -111
789051632947910016 -116
789051632955604736 -132
789051632963299584 -142
789051632970994432 -132
789051632978689152 -116
789051632986384000 -120
789051632994078720 -137
789051633001773568 -139
789051633009468288 -137
789051633017163136 -168
789051633024857856 -217
789051633032552704 -168
789051633040247424 71
789051633047942272 402
789051633055636992 580
789051633063331840 433
789051633071026468 68
789051633078720768 -224
789051633086415104 -251
789051633094109568 -156
789051633101803904 -165
789051633109498240 -203
789051633117192576 -194
789051633124887040 -187
789051633132581376 -177
789051633140275712 -153
789051633147970048 -144
789051633155664512 -149
789051633163358848 -158
789051633171053184 -153
789051633178747520 -134
789051633186441984 -111
789051633194136320 -104
789051633201830656 -101
789051633209524992 -92
789051633217219456 -78
789051633224913792 -68
789051633232608128 -63
789051633240302464 -52
789051633247996928 -42
789051633255691264 -33
789051633263385600 -21
789051633271079936 -9
789051633278774400 -4
789051633286468736 -23
789051633294163072 -44
789051633301857408 -30
789051633309551872 -4
789051633317246208 -7
789051633324940544 -23
789051633332634880 -30
789051633340329344 -28
789051633348023680 -14
789051633355718016 -14
789051633363412352 -33
789051633371106816 -47
789051633378801152 -56
789051633386495488 -66
789051633394189824 -52
789051633401884288 -37
789051633409578624 -52
789051633417272960 -66
789051633424967296 -54
789051633432661760 -47
789051633440356096 -54
789051633448050432 -44
789051633455744768 -21
789051633463439232 -18
789051633471133568 -30
789051633478827904 -37
789051633486522240 -47
789051633494216704 -61
789051633501911040 -68
789051633509605376 -75
789051633517299712 -63
789051633524994176 -49
789051633532688512 -73
789051633540382848 -94
789051633548077184 -75
789051633555771648 -56
789051633563465984 -61
789051633571160320 -68
789051633578854656 -106
789051633586549120 -156
789051633594243456 -89
789051633601937792 158
789051633609632128 464
789051633617326592 613
789051633625020928 440
789051633632715346 61
789051633640409728 -184
789051633648104064 -142
789051633655798528 -54
789051633663492864 -101
789051633671187200 -125
789051633678881536 -82
789051633686576000 -78
789051633694270336 -92
789051633701964672 -82
789051633709659008 -75
789051633717353472 -75
789051633725047808 -59
789051633732742144 -33
789051633740436480 -33
789051633748130944 -47
789051633755825280 -54
789051633763519616 -66
789051633771213952 -78
789051633778908416 -78
789051633786602752 -61
789051633794297088 -26
789051633801991424 -11
789051633809685888 -14
789051633817380224 2
789051633825074560 18
789051633832768896 9
789051633840463360 0
789051633848157696 7
789051633855852032 16
789051633863546368 16
789051633871240832 4
789051633878935168 -11
789051633886629504 -18
789051633894323840 -11
789051633902018304 -4
789051633909712640 -7
789051633917406976 -16
789051633925101312 -28
789051633932795776 -37
789051633940490112 -28
789051633948184448 -21
789051633955878784 -37
789051633963573248 -49
789051633971267584 -42
789051633978961920 -52
789051633986656256 -68
789051633994350720 -63
789051634002045056 -40
789051634009739392 -33
789051634017433728 -42
789051634025128192 -40
789051634032822528 -28
789051634040516864 -44
789051634048211200 -73
789051634055905664 -78
789051634063600000 -73
789051634071294336 -75
789051634078988672 -73
789051634086683136 -68
789051634094377472 -61
789051634102071808 -61
789051634109766144 -71
789051634117460608 -66
789051634125154944 -61
789051634132849280 -106
789051634140543616 -153
789051634148238080 -63
789051634155932416 203
789051634163626752 487
789051634171321088 565
789051634179015552 371
789051634186709888 37
789051634194404222 -177
789051634202099072 -134
789051634209793920 -52
789051634217488640 -80
789051634225183488 -87
789051634232878208 -56
789051634240573056 -59
789051634248267776 -71
789051634255962624 -82
789051634263657344 -92
789051634271352192 -82
789051634279046912 -63
789051634286741760 -61
789051634294436480 -63
789051634302131328 -56
789051634309826048 -49
789051634317520896 -42
789051634325215616 -37
789051634332910464 -28
789051634340605184 -16
789051634348300032 -11
789051634355994752 -7
789051634363689600 2
789051634371384320 16
789051634379079168 21
789051634386773888 16
789051634394468736 18
789051634402163456 23
789051634409858304 23
789051634417553024 23
789051634425247872 28
789051634432942720 28
789051634440637440 21
789051634448332288 16
789051634456027008 18
789051634463721856 16
789051634471416576 11
789051634479111424 11
789051634486806144 14
789051634494500992 11
789051634502195712 2
789051634509890560 2
789051634517585280 9
789051634525280128 -2
789051634532974848 -23
789051634540669696 -14
789051634548364416 9
789051634556059264 14
789051634563753984 11
789051634571448832 18
789051634579143552 23
789051634586838400 14
789051634594533120 -11
789051634602227968 -26
789051634609922688 -23
789051634617617536 -28
789051634625312256 -44
789051634633007104 -37
789051634640701824 -26
789051634648396672 -28
789051634656091520 -28
789051634663786240 -23
789051634671481088 -28
789051634679175808 -59
789051634686870656 -116
789051634694565376 -92
789051634702260224 113
789051634709954944 426
789051634717649792 618
789051634725344512 509
789051634733039360 170
789051634740734080 -113
789051634748428928 -142
789051634756123616 -37
789051634763817984 -47
789051634771512320 -94
789051634779206784 -66
789051634786901120 -44
789051634794595456 -59
789051634802289792 -59
789051634809984256 -49
789051634817678592 -49
789051634825372928 -56
789051634833067264 -66
789051634840761728 -56
789051634848456064 -44
789051634856150400 -49
789051634863844736 -44
789051634871539200 -30
789051634879233536 -21
789051634886927872 -18
789051634894622208 -14
789051634902316672 -4
789051634910011008 2
789051634917705344 7
789051634925399680 9
789051634933094144 18
789051634940788480 26
789051634948482816 18
789051634956177152 11
789051634963871616 21
789051634971565952 21
789051634979260288 11
789051634986954624 11
789051634994649088 16
789051635002343424 11
789051635010037760 9
789051635017732096 14
789051635025426560 18
789051635033120896 16
789051635040815232 4
789051635048509568 -2
789051635056204032 2
789051635063898368 0
789051635071592704 -4
789051635079287040 -9
789051635086981504 -16
789051635094675840 -14
789051635102370176 0
789051635110064512 7
789051635117758976 9
789051635125453312 14
789051635133147648 16
789051635140841984 7
789051635148536448 -21
789051635156230784 -37
789051635163925120 -35
789051635171619456 -35
789051635179313920 -40
789051635187008256 -42
789051635194702592 -44
789051635202396928 -40
789051635210091392 -33
789051635217785728 -33
789051635225480064 -44
789051635233174400 -75
789051635240868864 -130
789051635248563200 -92
789051635256257536 156
789051635263951872 499
789051635271646336 660
789051635279340672 485
789051635287035008 111
789051635294729344 -161
789051635302423808 -149
789051635310118144 -47
789051635317812492 -78
789051635325507328 -106
789051635333202176 -71
789051635340896896 -63
789051635348591744 -75
789051635356286464 -66
789051635363981312 -71
789051635371676032 -87
789051635379370880 -80
789051635387065600 -61
789051635394760448 -61
789051635402455168 -66
789051635410150016 -61
789051635417844736 -49
789051635425539584 -49
789051635433234304 -44
789051635440929152 -30
789051635448623872 -26
789051635456318720 -40
789051635464013440 -40
789051635471708288 -28
789051635479403008 -16
789051635487097856 -14
789051635494792576 -14
789051635502487424 -16
789051635510182144 -14
789051635517876992 -14
789051635525571712 -18
789051635533266560 -16
789051635540961280 -16
789051635548656128 -26
789051635556350976 -26
789051635564045696 -18
789051635571740544 -16
789051635579435264 -21
789051635587130112 -23
789051635594824832 -26
789051635602519680 -30
789051635610214400 -33
789051635617909248 -33
789051635625603968 -30
789051635633298816 -40
789051635640993536 -52
789051635648688384 -49
789051635656383104 -37
789051635664077952 -35
789051635671772672 -35
789051635679467520 -26
789051635687162240 -16
789051635694857088 -23
789051635702551808 -47
789051635710246656 -68
789051635717941376 -75
789051635725636224 -78
789051635733330944 -92
789051635741025792 -92
789051635748720512 -80
789051635756415360 -87
789051635764110080 -94
789051635771804928 -89
789051635779499776 -92
789051635787194496 -116
789051635794889344 -172
789051635802584064 -213
789051635810278912 -73
789051635817973632 255
789051635825668480 551
789051635833363200 592
789051635841058048 336
789051635848752768 -59
789051635856447616 -262
789051635864142336 -163
789051635871837184 -99
789051635879531886 -172
789051635887226240 -170
789051635894920576 -123
789051635902615040 -134
789051635910309376 -146
789051635918003712 -132
789051635925698048 -125
789051635933392512 -127
789051635941086848 -134
789051635948781184 -125
789051635956475520 -108
789051635964169984 -106
789051635971864320 -106
789051635979558656 -89
789051635987252992 -75
789051635994947456 -68
789051636002641792 -63
789051636010336128 -56
789051636018030464 -44
789051636025724928 -37
789051636033419264 -30
789051636041113600 -18
789051636048807936 -16
789051636056502400 -21
789051636064196736 -18
789051636071891072 -11
789051636079585408 -11
789051636087279872 -16
789051636094974208 -23
789051636102668544 -23
789051636110362880 -21
789051636118057344 -18
789051636125751680 -11
789051636133446016 -7
789051636141140352 -4
789051636148834816 -11
789051636156529152 -11
789051636164223488 -4
789051636171917824 -9
789051636179612288 -16
789051636187306624 -16
789051636195000960 -16
789051636202695296 -23
789051636210389760 -26
789051636218084096 -26
789051636225778432 -23
789051636233472768 -11
789051636241167232 -4
789051636248861568 -2
789051636256555904 11
789051636264250240 21
789051636271944704 -2
789051636279639040 -35
789051636287333376 -40
789051636295027712 -35
789051636302722176 -40
789051636310416512 -35
789051636318110848 -26
789051636325805184 -30
789051636333499648 -40
789051636341193984 -30
789051636348888320 -21
789051636356582656 -33
789051636364277120 -85
789051636371971456 -125
789051636379665792 -18
789051636387360128 267
789051636395054592 568
789051636402748928 651
789051636410443264 421
789051636418137600 35
789051636425832064 -179
789051636433526400 -99
789051636441220762 -23
789051636448915072 -82
789051636456609408 -87
789051636464303872 -52
789051636471998208 -75
789051636479692544 -94
789051636487386880 -78
789051636495081344 -68
789051636502775680 -68
789051636510470016 -63
789051636518164352 -63
789051636525858816 -56
789051636533553152 -44
789051636541247488 -42
789051636548941824 -35
789051636556636288 -23
789051636564330624 -26
789051636572024960 -23
789051636579719296 -7
789051636587413760 2
789051636595108096 4
789051636602802432 4
789051636610496768 7
789051636618191232 11
789051636625885568 9
789051636633579904 9
789051636641274240 14
789051636648968704 16
789051636656663040 7
789051636664357376 -2
789051636672051712 0
789051636679746176 4
789051636687440512 4
789051636695134848 9
789051636702829184 14
789051636710523648 11
789051636718217984 9
789051636725912320 11
789051636733606656 16
789051636741301120 11
789051636748995456 0
789051636756689792 -4
789051636764384128 -2
789051636772078592 -2
789051636779772928 -11
789051636787467264 -16
789051636795161600 -16
789051636802856064 -21
789051636810550400 -30
789051636818244736 -33
789051636825939072 -33
789051636833633536 -37
789051636841327872 -44
789051636849022208 -40
789051636856716544 -18
789051636864411008 -14
789051636872105344 -35
789051636879799680 -61
789051636887494016 -71
789051636895188480 -68
789051636902882816 -66
789051636910577152 -59
789051636918271488 -52
789051636925965952 -54
789051636933660288 -59
789051636941354624 -52
789051636949048960 -44
789051636956743424 -59
789051636964437760 -101
789051636972132096 -125
789051636979826432 -18
789051636987520896 251
789051636995215232 530
789051637002909640 594
789051637010604544 350
789051637018299392 -26
789051637025994112 -208
789051637033688960 -113
789051637041383680 -42
789051637049078528 -101
789051637056773248 -108
789051637064468096 -71
789051637072162816 -89
789051637079857664 -113
789051637087552384 -101
789051637095247232 -87
789051637102941952 -87
789051637110636800 -89
789051637118331520 -85
789051637126026368 -75
789051637133721088 -68
789051637141415936 -63
789051637149110656 -56
789051637156805504 -49
789051637164500224 -44
789051637172195072 -40
789051637179889792 -33
789051637187584640 -23
789051637195279360 -18
789051637202974208 -18
789051637210668928 -16
789051637218363776 -11
789051637226058496 -7
789051637233753344 -7
789051637241448192 -4
789051637249142912 -7
789051637256837760 -16
789051637264532480 -16
789051637272227328 -11
789051637279922048 -11
789051637287616896 -9
789051637295311616 -7
789051637303006464 -2
789051637310701184 2
789051637318396032 4
789051637326090752 9
789051637333785600 9
789051637341480320 2
789051637349175168 -9
789051637356869888 -16
789051637364564736 -14
789051637372259456 -21
789051637379954304 -30
789051637387649024 -33
789051637395343872 -35
789051637403038592 -40
789051637410733440 -44
789051637418428160 -47
789051637426123008 -44
789051637433817728 -49
789051637441512576 -61
789051637449207296 -59
789051637456902144 -52
789051637464596992 -49
789051637472291712 -42
789051637479986560 -23
789051637487681280 -11
789051637495376128 -9
789051637503070848 -23
789051637510765696 -44
789051637518460416 -49
789051637526155264 -49
789051637533849984 -54
789051637541544832 -47
789051637549239552 -42
789051637556934400 -47
789051637564629034 -47
789051637572323328 -44
789051637580017664 -42
789051637587712128 -54
789051637595406464 -92
789051637603100800 -118
789051637610795136 0
789051637618489600 286
789051637626183936 558
789051637633878272 582
789051637641572608 303
789051637649267072 -78
789051637656961408 -241
789051637664655744 -130
789051637672350080 -61
789051637680044544 -123
789051637687738880 -116
789051637695433216 -78
789051637703127552 -94
789051637710822016 -106
789051637718516352 -85
789051637726210688 -75
789051637733905024 -75
789051637741599488 -68
789051637749293824 -59
789051637756988160 -54
789051637764682496 -54
789051637772376960 -54
789051637780071296 -42
789051637787765632 -33
789051637795459968 -30
789051637803154432 -26
789051637810848768 -18
789051637818543104 -14
789051637826237440 -7
789051637833931904 0
789051637841626240 7
789051637849320576 9
789051637857014912 4
789051637864709376 2
789051637872403712 9
789051637880098048 11
789051637887792384 7
789051637895486848 2
789051637903181184 4
789051637910875520 2
789051637918569856 -2
789051637926264320 0
789051637933958656 16
789051637941652992 26
789051637949347328 16
789051637957041792 16
789051637964736128 26
789051637972430464 16
789051637980124800 2
789051637987819264 -4
789051637995513600 -14
789051638003207936 -21
789051638010902272 -26
789051638018596736 -30
789051638026291072 -33
789051638033985408 -37
789051638041679744 -47
789051638049374208 -47
789051638057068544 -47
789051638064762880 -52
789051638072457216 -54
789051638080151680 -54
789051638087846016 -47
789051638095540352 -42
789051638103234688 -30
789051638110929152 -14
789051638118623488 -7
789051638126317910 -30
789051638134012288 -59
789051638141706624 -59
789051638149401088 -52
789051638157095424 -59
789051638164789760 -56
789051638172484096 -49
789051638180178560 -56
789051638187872896 -73
789051638195567232 -75
789051638203261568 -66
789051638210956032 -80
789051638218650368 -137
789051638226344704 -139
789051638234039040 52
789051638241733504 378
789051638249427840 603
789051638257122176 532
789051638264816512 189
789051638272510976 -172
789051638280205312 -253
789051638287899648 -120
789051638295593984 -92
789051638303288448 -146
789051638310982784 -127
789051638318677120 -106
789051638326371456 -116
789051638334065920 -108
789051638341760256 -97
789051638349454592 -92
789051638357148928 -85
789051638364843392 -80
789051638372537728 -78
789051638380232064 -66
789051638387926400 -54
789051638395620864 -49
789051638403315200 -47
789051638411009536 -42
789051638418703872 -30
789051638426398336 -21
789051638434092672 -16
789051638441787008 -7
789051638449481344 2
789051638457175808 -2
789051638464870144 0
789051638472564480 11
789051638480258816 11
789051638487953280 4
789051638495647616 4
789051638503341952 2
789051638511036288 -4
789051638518730752 -7
789051638526425088 -7
789051638534119424 -2
789051638541813760 2
789051638549508224 4
789051638557202560 9
789051638564896896 18
789051638572591232 26
789051638580285696 18
789051638587980032 11
789051638595674368 7
789051638603368704 -2
789051638611063168 -11
789051638618757504 -16
789051638626451840 -18
789051638634146176 -26
789051638641840640 -33
789051638649534976 -37
789051638657229312 -40
789051638664923648 -40
789051638672618112 -42
789051638680312448 -49
789051638688006786 -52
789051638695701632 -52
789051638703396480 -47
789051638711091200 -35
789051638718786048 -23
789051638726480768 -14
789051638734175616 -7
789051638741870336 -16
789051638749565184 -37
789051638757259904 -71
789051638764954752 -82
789051638772649472 -73
789051638780344320 -75
789051638788039040 -82
789051638795733888 -75
789051638803428608 -63
789051638811123456 -61
789051638818818176 -66
789051638826513024 -71
789051638834207744 -99
789051638841902592 -132
789051638849597312 -44
789051638857292160 222
789051638864986880 525
789051638872681728 632
789051638880376448 419
789051638888071296 21
789051638895766016 -220
789051638903460864 -144
789051638911155584 -49
789051638918850432 -106
789051638926545280 -120
789051638934240000 -78
789051638941934848 -85
789051638949629568 -92
789051638957324416 -71
789051638965019136 -73
789051638972713984 -78
789051638980408704 -61
789051638988103552 -52
789051638995798272 -54
789051639003493120 -49
789051639011187840 -40
789051639018882688 -35
789051639026577408 -28
789051639034272256 -23
789051639041966976 -14
789051639049661824 -7
789051639057356544 -14
789051639065051392 -7
789051639072746112 7
789051639080440960 11
789051639088135680 9
789051639095830528 11
789051639103525248 9
789051639111220096 7
789051639118914816 4
789051639126609664 0
789051639134304384 0
789051639141999232 -4
789051639149694080 -14
789051639157388800 -9
789051639165083648 4
789051639172778368 11
789051639180473216 11
789051639188167936 14
789051639195862784 18
789051639203557504 14
789051639211252352 -2
789051639218947072 -9
789051639226641920 -9
789051639234336640 -18
789051639242031488 -33
789051639249726180 -35
789051639257420544 -30
789051639265114880 -35
789051639272809344 -42
789051639280503680 -44
789051639288198016 -54
789051639295892352 -73
789051639303586816 -85
789051639311281152 -80
789051639318975488 -75
789051639326669824 -82
789051639334364288 -75
789051639342058624 -59
789051639349752960 -47
789051639357447296 -35
789051639365141760 -37
789051639372836096 -63
789051639380530432 -85
789051639388224768 -80
789051639395919232 -71
789051639403613568 -68
789051639411307904 -71
789051639419002240 -73
789051639426696704 -73
789051639434391040 -61
789051639442085376 -59
789051639449779712 -66
789051639457474176 -85
789051639465168512 -125
789051639472862848 -89
789051639480557184 125
789051639488251648 440
789051639495945984 610
789051639503640320 485
789051639511334656 127
789051639519029120 -196
789051639526723456 -213
789051639534417792 -75
789051639542112128 -85
789051639549806592 -132
789051639557500928 -94
789051639565195264 -87
789051639572889600 -106
789051639580584064 -89
789051639588278400 -71
789051639595972736 -73
789051639603667072 -75
789051639611361536 -66
789051639619055872 -59
789051639626750208 -52
789051639634444544 -44
789051639642139008 -40
789051639649833344 -35
789051639657527680 -35
789051639665222016 -30
789051639672916480 -14
789051639680610816 -4
789051639688305152 -7
789051639695999488 -11
789051639703693952 -7
789051639711388288 -9
789051639719082624 -21
789051639726776960 -28
789051639734471424 -18
789051639742165760 -21
789051639749860096 -33
789051639757554432 -35
789051639765248896 -33
789051639772943232 -33
789051639780637568 -33
789051639788331904 -21
789051639796026368 -11
789051639803720704 -7
789051639811415056 0
789051639819109376 7
789051639826803712 11
789051639834498176 7
789051639842192512 -9
789051639849886848 -14
789051639857581184 -16
789051639865275648 -37
789051639872969984 -59
789051639880664320 -59
789051639888358656 -59
789051639896053120 -71
789051639903747456 -73
789051639911441792 -73
789051639919136128 -80
789051639926830592 -82
789051639934524928 -78
789051639942219264 -68
789051639949913600 -61
789051639957608064 -56
789051639965302400 -37
789051639972996736 -16
789051639980691072 -28
789051639988385536 -54
789051639996079872 -66
789051640003774208 -59
789051640011468544 -56
789051640019163008 -63
789051640026857344 -63
789051640034551680 -54
789051640042246016 -49
789051640049940480 -52
789051640057634816 -44
789051640065329152 -40
789051640073023488 -59
789051640080717952 -108
789051640088412288 -127
789051640096106624 7
789051640103800960 324
789051640111495424 646
789051640119189760 731
789051640126884096 478
789051640134578432 18
789051640142272896 -239
789051640149967232 -127
789051640157661568 -42
789051640165355904 -125
789051640173050368 -127
789051640180744704 -71
789051640188439040 -80
789051640196133376 -92
789051640203827840 -73
789051640211522176 -68
789051640219216512 -66
789051640226910848 -54
789051640234605312 -49
789051640242299648 -44
789051640249993984 -37
789051640257688320 -37
789051640265382784 -35
789051640273077120 -23
789051640280771456 -16
789051640288465792 -16
789051640296160256 -11
789051640303854592 -7
789051640311548928 -2
789051640319243264 2
789051640326937728 4
789051640334632064 7
789051640342326400 7
789051640350020736 -2
789051640357715200 -4
789051640365409536 2
789051640373103934 -2
